265,522
256,628
261,641
264,653
266,667
268,683
270,696
269,708
267,721
263,736
263,750
263,762
260,776
255,790
279,803
332,816
335,829
310,844
285,858
277,870
271,883
268,899
263,912
263,924
265,937
267,952
270,966
273,977
278,992
281,1006
285,1020
286,1033
287,1046
286,1061
279,1076
277,1088
272,1102
269,1118
268,1131
269,1144
270,1158
268,1173
271,1187
271,1200
271,1214
274,1229
274,1243
278,1255
279,1269
279,1285
279,1298
275,1311
273,1325
270,1340
269,1356
263,1369
284,1385
343,1400
331,1414
305,1426
291,1442
282,1457
277,1470
272,1482
273,1498
272,1512
275,1526
279,1561
287,1577
291,1593
294,1605
294,1617
295,1634
291,1649
285,1662
282,1675
276,1690
276,1705
276,1718
277,1731
277,1746
278,1761
279,1773
282,1786
283,1802
286,1817
289,1829
290,1842
293,1857
291,1872
287,1885
284,1898
282,1913
280,1928
274,1941
278,1953
319,1969
360,1984
336,1996
313,2010
299,2025
288,2039
282,2053
279,2065
278,2080
278,2098
280,2110
283,2124
286,2140
291,2153
296,2166
299,2180
302,2195
301,2208
298,2222
293,2236
288,2250
283,2265
282,2277
281,2291
282,2307
283,2320
284,2333
285,2347
285,2362
286,2377
290,2394
294,2406
296,2420
298,2437
295,2450
290,2462
288,2477
285,2492
283,2505
276,2519
281,2532
329,2547
356,2562
333,2574
312,2588
297,2603
288,2617
282,2629
280,2643
279,2659
280,2672
282,2685
284,2699
288,2714
294,2728
299,2741
302,2755
303,2769
303,2784
301,2796
296,2810
290,2829
286,2842
284,2854
284,2870
284,2885
286,2897
286,2910
287,2925
287,2940
288,2953
289,2966
292,2981
295,2996
299,3009
301,3021
300,3037
296,3052
293,3065
291,3099
280,3116
305,3131
360,3144
354,3156
331,3173
310,3188
300,3201
294,3214
292,3229
292,3244
293,3257
295,3269
298,3284
302,3300
307,3312
311,3324
315,3340
318,3355
319,3367
317,3381
313,3396
307,3410
302,3424
298,3436
296,3451
295,3466
295,3479
295,3491
296,3507
296,3522
296,3534
296,3547
297,3566
298,3579
301,3593
303,3607
304,3621
301,3636
297,3648
295,3662
293,3678
290,3691
284,3704
289,3718
332,3733
359,3746
339,3760
318,3774
304,3788
296,3803
291,3815
289,3829
288,3845
289,3858
291,3870
294,3885
298,3900
303,3913
307,3927
310,3940
312,3955
311,3969
309,3982
305,3996
299,4011
294,4025
292,4037
291,4051
291,4066
291,4080
292,4092
293,4107
293,4122
293,4136
294,4153
295,4166
298,4179
301,4196
303,4209
300,4222
298,4236
295,4251
293,4264
291,4280
285,4296
301,4312
347,4324
351,4336
332,4352
312,4367
301,4379
296,4391
292,4407
290,4422
290,4434
292,4448
294,4463
297,4477
301,4491
305,4503
308,4518
311,4534
312,4546
310,4558
308,4574
302,4589
298,4603
294,4636
290,4653
292,4668
292,4681
293,4694
293,4710
294,4725
295,4738
296,4751
299,4766
302,4781
303,4793
301,4806
298,4822
296,4836
294,4849
292,4861
286,4877
295,4892
338,4904
349,4917
333,4932
313,4947
303,4960
297,4973
295,4988
293,5003
293,5018
295,5032
297,5048
300,5061
304,5073
307,5088
311,5103
313,5116
314,5129
313,5143
310,5158
305,5172
301,5185
298,5198
295,5214
295,5228
295,5240
294,5255
295,5270
295,5283
295,5296
295,5310
294,5325
294,5339
296,5352
298,5365
302,5381
305,5394
307,5407
305,5422
301,5436
296,5450
293,5463
291,5477
285,5492
295,5506
338,5518
360,5532
340,5548
317,5561
305,5574
298,5588
292,5603
290,5617
289,5629
290,5644
292,5659
296,5672
299,5686
304,5699
308,5714
312,5731
313,5745
313,5758
310,5773
305,5786
301,5800
298,5814
296,5828
295,5841
295,5856
295,5869
296,5884
295,5902
295,5915
295,5927
295,5944
295,5958
294,5970
294,5984
295,5999
296,6013
299,6026
302,6039
304,6054
306,6069
304,6081
301,6094
298,6110
296,6124
294,6138
288,6171
359,6188
359,6203
332,6216
317,6228
307,6245
298,6260
293,6273
291,6285
291,6300
292,6316
294,6328
298,6341
302,6356
307,6371
311,6383
313,6396
314,6412
313,6426
309,6439
304,6452
300,6467
294,6484
293,6497
292,6511
292,6526
293,6540
293,6552
293,6566
293,6582
293,6595
293,6608
293,6622
293,6637
293,6650
293,6664
295,6677
298,6692
300,6707
303,6719
305,6733
304,6748
300,6762
298,6774
296,6789
294,6804
289,6817
288,6830
319,6844
368,6859
357,6873
331,6886
316,6899
305,6915
297,6928
293,6941
290,6955
290,6970
291,6983
294,6996
297,7010
301,7025
306,7038
311,7052
313,7066
315,7080
313,7095
309,7107
305,7121
299,7136
294,7150
292,7162
291,7177
291,7194
291,7207
292,7223
292,7237
292,7250
291,7265
292,7278
291,7292
288,7306
293,7320
294,7333
293,7348
294,7361
295,7374
298,7389
300,7403
301,7416
299,7430
296,7444
292,7457
292,7472
293,7485
287,7499
291,7513
335,7527
370,7540
352,7555
328,7568
314,7581
303,7596
297,7609
296,7623
295,7639
296,7656
298,7670
302,7705
313,7723
318,7736
322,7749
323,7762
321,7779
315,7793
312,7805
310,7820
305,7834
305,7848
305,7861
304,7875
304,7889
304,7904
305,7916
304,7933
304,7948
304,7961
304,7975
303,7989
303,8003
304,8016
306,8031
309,8044
310,8058
310,8072
306,8086
303,8099
300,8114
299,8127
295,8141
291,8155
316,8169
360,8182
355,8197
331,8210
314,8224
304,8238
299,8252
296,8266
294,8280
293,8294
293,8307
295,8322
298,8335
302,8349
306,8363
310,8377
313,8390
314,8404
312,8418
308,8432
302,8445
296,8460
292,8473
290,8487
289,8501
288,8515
287,8528
288,8543
288,8556
288,8570
287,8584
287,8598
288,8611
288,8626
289,8643
292,8655
295,8670
298,8684
301,8698
299,8711
296,8725
293,8739
291,8754
289,8766
286,8780
282,8795
312,8809
357,8821
351,8836
327,8850
309,8864
298,8877
293,8891
289,8905
288,8920
288,8932
289,8946
292,8961
296,8975
301,8987
305,9001
310,9017
314,9030
315,9042
314,9057
311,9071
305,9085
299,9098
296,9112
294,9126
292,9141
292,9153
292,9167
292,9182
292,9197
292,9231
290,9245
290,9261
291,9275
294,9287
295,9303
299,9318
300,9331
301,9344
296,9358
294,9376
291,9391
290,9407
283,9421
292,9437
348,9452
358,9464
337,9478
317,9493
304,9507
296,9520
291,9533
289,9548
289,9563
290,9575
292,9589
295,9604
299,9618
304,9630
308,9645
313,9659
316,9673
316,9686
313,9700
308,9714
302,9729
297,9741
294,9755
291,9769
289,9784
289,9796
289,9810
289,9825
289,9839
289,9851
289,9866
290,9881
291,9894
293,9907
295,9921
299,9936
302,9950
302,9962
300,9976
297,9992
295,10005
295,10018
293,10033
289,10048
322,10062
365,10075
351,10094
325,10109
312,10123
305,10135
300,10151
296,10167
295,10180
296,10192
297,10209
299,10224
303,10236
307,10250
310,10266
313,10280
314,10294
311,10307
306,10323
298,10339
291,10351
287,10364
283,10381
282,10395
281,10408
281,10422
282,10437
281,10452
284,10466
285,10479
286,10494
289,10510
293,10523
296,10535
300,10552
301,10567
297,10579
297,10593
296,10609
295,10624
292,10637
285,10650
294,10665
349,10681
360,10694
338,10707
319,10723
305,10738
297,10753
293,10790
291,10807
291,10822
296,10835
299,10850
304,10866
308,10881
310,10894
310,10908
307,10924
300,10938
293,10951
287,10966
284,10981
283,10995
283,11009
283,11023
284,11038
284,11053
284,11066
284,11080
285,11097
285,11111
288,11123
290,11139
294,11154
296,11169
296,11187
293,11200
291,11216
289,11233
287,11245
281,11258
291,11275
352,11290
362,11302
338,11316
319,11332
305,11346
296,11360
292,11373
290,11389
291,11404
292,11417
294,11430
298,11447
303,11460
308,11473
312,11487
316,11503
317,11517
314,11531
308,11544
302,11560
296,11576
292,11588
290,11601
290,11618
289,11633
290,11645
291,11659
291,11675
291,11691
291,11704
292,11716
293,11732
296,11748
300,11761
302,11773
303,11790
301,11805
298,11819
296,11831
294,11847
292,11863
285,11876
306,11888
358,11905
362,11920
334,11933
317,11947
306,11962
298,11977
294,11991
293,12004
294,12019
296,12035
300,12048
304,12060
309,12077
316,12092
320,12105
323,12119
323,12137
318,12151
312,12165
305,12179
300,12194
297,12209
295,12222
295,12236
295,12252
295,12266
296,12279
296,12294
295,12309
295,12323
297,12338
298,12374
304,12390
302,12404
298,12418
295,12432
293,12448
291,12463
284,12476
291,12490
340,12506
361,12520
338,12533
318,12548
305,12563
296,12577
293,12591
291,12605
291,12620
293,12635
296,12648
299,12662
304,12678
311,12692
315,12705
319,12720
320,12735
317,12749
311,12762
306,12776
300,12792
296,12806
294,12823
293,12837
293,12852
294,12866
294,12881
295,12896
294,12910
294,12924
294,12939
296,12953
298,12968
301,12987
304,13002
302,13018
298,13032
295,13046
293,13062
291,13076
284,13090
292,13105
340,13119
360,13133
338,13148
316,13162
303,13176
295,13191
291,13205
289,13218
289,13234
290,13247
293,13262
297,13276
302,13290
307,13304
312,13319
315,13333
316,13347
313,13362
308,13376
302,13390
296,13405
293,13419
290,13433
290,13448
290,13462
291,13476
292,13491
293,13508
294,13522
294,13536
293,13550
295,13565
297,13580
300,13593
301,13607
305,13623
307,13637
307,13650
304,13665
301,13680
300,13694
296,13708
292,13722
294,13737
339,13752
373,13765
353,13779
332,13795
318,13809
310,13821
304,13836
299,13852
297,13865
299,13879
301,13893
305,13908
309,13925
314,13959
323,13974
324,13989
320,14004
313,14017
306,14032
301,14049
296,14063
295,14075
295,14090
295,14106
295,14119
295,14133
295,14147
295,14162
295,14177
294,14193
294,14209
294,14224
297,14237
299,14251
302,14266
303,14281
301,14295
298,14307
296,14323
295,14339
293,14352
289,14364
289,14381
334,14396
365,14408
345,14422
324,14438
309,14452
300,14466
295,14479
292,14494
291,14510
292,14523
293,14536
296,14552
301,14567
307,14579
312,14593
315,14609
316,14623
314,14637
309,14650
302,14665
294,14681
288,14694
285,14707
284,14723
284,14738
283,14752
283,14771
284,14787
284,14802
285,14816
285,14829
285,14845
287,14861
290,14876
293,14891
296,14906
299,14920
296,14934
294,14947
291,14962
289,14977
289,14990
283,15004
290,15020
346,15034
361,15046
339,15062
317,15077
305,15090
298,15104
294,15118
292,15133
292,15148
293,15161
295,15175
299,15191
305,15205
309,15217
314,15232
319,15248
320,15261
317,15275
312,15289
305,15304
297,15319
293,15332
290,15346
289,15362
289,15375
289,15388
290,15403
291,15418
291,15432
292,15446
292,15460
294,15475
297,15490
301,15504
305,15539
301,15557
296,15571
294,15587
292,15601
287,15617
289,15632
336,15645
367,15660
344,15674
320,15688
308,15703
298,15717
294,15731
291,15746
291,15760
292,15774
294,15789
298,15803
302,15817
308,15832
313,15846
318,15860
319,15875
316,15889
311,15903
302,15918
296,15932
292,15946
290,15961
288,15974
288,15989
288,16003
289,16017
290,16031
290,16046
288,16060
291,16074
295,16089
297,16103
301,16117
301,16132
299,16146
296,16160
294,16175
292,16189
290,16203
284,16218
289,16234
337,16248
367,16264
340,16278
318,16291
306,16306
297,16321
292,16335
289,16349
287,16363
289,16378
292,16393
297,16406
301,16420
306,16436
310,16449
314,16462
316,16477
314,16492
309,16506
302,16521
296,16540
292,16557
291,16572
290,16584
289,16599
290,16615
292,16629
293,16643
293,16657
294,16672
297,16687
301,16700
303,16714
303,16730
299,16744
296,16756
294,16772
292,16787
290,16801
282,16814
302,16828
357,16844
356,16858
330,16871
314,16885
301,16901
293,16917
291,16930
291,16947
291,16962
293,16974
296,16988
299,17004
305,17018
311,17032
314,17045
316,17060
316,17076
310,17090
305,17124
294,17141
291,17157
291,17170
291,17182
292,17200
290,17215
291,17228
290,17242
293,17257
296,17272
300,17286
302,17299
302,17314
297,17330
293,17343
291,17355
290,17372
286,17387
281,17400
307,17413
356,17429
351,17444
324,17457
310,17470
301,17486
293,17501
292,17514
291,17527
292,17543
295,17558
299,17571
302,17585
308,17604
315,17618
318,17631
320,17645
319,17660
312,17675
306,17688
301,17702
296,17718
293,17732
292,17745
291,17760
291,17775
291,17789
291,17803
291,17817
292,17832
294,17847
297,17859
301,17873
304,17889
302,17903
298,17916
294,17931
292,17946
291,17960
287,17974
283,17988
317,18003
371,18018
353,18031
330,18045
314,18061
302,18075
295,18087
291,18102
290,18117
290,18131
292,18145
294,18159
297,18174
304,18189
308,18202
312,18216
314,18232
313,18246
309,18258
303,18277
298,18294
294,18315
291,18330
290,18342
290,18357
291,18373
291,18388
291,18402
291,18416
292,18432
295,18446
299,18458
301,18472
302,18488
298,18502
293,18515
291,18530
289,18545
286,18560
278,18573
295,18587
355,18603
361,18616
334,18629
316,18643
303,18659
295,18674
290,18708
289,18723
291,18740
295,18754
300,18766
304,18782
310,18798
314,18812
317,18825
315,18839
311,18855
303,18869
299,18882
295,18896
293,18912
291,18926
291,18939
290,18954
290,18967
290,18981
289,18995
289,19009
291,19024
294,19039
297,19052
299,19066
300,19082
296,19096
292,19108
290,19123
288,19139
286,19152
280,19166
305,19180
363,19195
354,19210
327,19223
313,19237
302,19253
295,19267
291,19280
290,19295
291,19310
294,19324
297,19338
302,19352
308,19367
314,19382
319,19394
322,19409
322,19425
317,19439
311,19451
305,19467
299,19482
295,19496
293,19509
291,19523
290,19539
288,19553
288,19566
288,19580
288,19596
291,19610
294,19623
297,19642
300,19656
300,19670
297,19683
293,19698
289,19714
288,19727
284,19740
278,19756
306,19771
360,19784
351,19796
326,19813
307,19828
296,19841
291,19854
287,19870
287,19885
288,19898
290,19911
293,19927
298,19942
304,19955
309,19969
314,19984
318,19999
318,20013
314,20025
309,20041
303,20056
299,20070
296,20090
294,20106
293,20120
292,20133
292,20149
292,20164
293,20178
294,20192
296,20206
300,20221
302,20236
301,20250
297,20285
291,20301
289,20316
281,20333
313,20347
360,20363
348,20377
323,20391
307,20406
299,20420
294,20434
291,20449
291,20462
292,20477
294,20491
297,20505
302,20519
307,20534
312,20548
315,20562
317,20577
316,20591
312,20605
306,20620
300,20634
297,20648
295,20662
293,20677
292,20690
292,20705
292,20719
292,20733
292,20748
294,20762
296,20776
299,20791
301,20805
302,20819
299,20834
295,20848
293,20861
291,20876
289,20890
282,20904
302,20919
354,20933
354,20947
329,20962
311,20976
301,20990
294,21009
291,21023
290,21037
291,21051
293,21067
297,21081
301,21094
306,21108
310,21124
314,21138
316,21151
315,21166
312,21181
305,21195
300,21208
297,21223
294,21238
293,21253
293,21265
292,21279
293,21295
293,21309
292,21322
293,21337
296,21352
299,21366
302,21380
304,21394
302,21409
297,21424
294,21437
292,21451
290,21467
283,21481
290,21494
335,21509
362,21524
337,21538
316,21551
305,21566
296,21581
291,21596
289,21608
289,21622
290,21639
293,21652
296,21668
302,21684
307,21699
312,21712
315,21725
315,21741
312,21755
307,21769
302,21782
297,21797
294,21813
292,21829
292,21869
292,21886
293,21901
292,21914
292,21929
295,21946
299,21960
303,21974
305,21988
306,22003
301,22018
296,22031
293,22045
291,22061
287,22075
281,22088
308,22103
363,22118
352,22132
326,22145
311,22160
300,22175
293,22189
290,22202
289,22216
289,22232
291,22246
295,22259
299,22274
304,22289
310,22303
314,22317
316,22331
316,22346
312,22361
305,22377
299,22391
295,22406
292,22420
291,22434
292,22449
292,22463
292,22477
292,22492
292,22506
292,22520
292,22535
292,22549
292,22563
293,22578
296,22591
300,22606
303,22620
305,22634
305,22648
300,22663
296,22677
294,22691
291,22706
285,22720
286,22734
331,22749
369,22763
347,22777
322,22792
308,22806
298,22820
293,22835
290,22849
289,22863
290,22878
292,22892
296,22906
300,22921
306,22935
311,22949
315,22963
318,22978
316,22991
312,23006
306,23020
300,23037
293,23165
291,23181
291,23195
292,23209
293,23225
296,23242
299,23258
302,23272
305,23287
303,23304
298,23319
295,23332
293,23349
290,23365
282,23379
315,23394
367,23409
352,23426
323,23441
308,23455
299,23471
293,23487
291,23502
290,23518
292,23555
301,23572
307,23587
313,23602
316,23617
318,23634
314,23651
308,23664
301,23681
296,23697
292,23712
291,23726
290,23742
291,23758
291,23774
291,23787
291,23802
291,23820
291,23834
291,23848
291,23864
292,23881
292,23899
295,23915
298,23930
302,23946
304,23961
304,23977
300,23993
296,24008
294,24024
292,24039
284,24054
306,24070
362,24084
354,24100
326,24116
309,24131
300,24145
294,24162
292,24176
292,24193
293,24207
296,24223
300,24239
305,24254
311,24269
315,24285
318,24300
319,24315
315,24330
308,24346
302,24361
296,24377
293,24391
292,24408
292,24423
292,24438
292,24454
292,24469
292,24484
292,24500
292,24515
292,24530
293,24546
294,24561
297,24576
300,24592
303,24606
304,24625
300,24641
297,24656
294,24671
292,24686
286,24702
293,24718
345,24732
358,24748
332,24764
311,24779
300,24793
293,24809
292,24825
293,24841
295,24854
297,24869
299,24887
304,24901
310,24915
314,24931
317,24948
315,24963
308,24977
302,24992
293,25009
284,25024
279,25038
277,25054
277,25070
279,25085
283,25101
287,25120
290,25136
293,25149
296,25165
298,25182
300,25197
302,25212
307,25249
315,25267
314,25282
309,25296
305,25312
303,25329
300,25346
292,25363
328,25378
374,25394
352,25409
327,25424
312,25440
302,25455
296,25470
292,25486
292,25501
294,25517
297,25532
299,25547
304,25563
309,25578
314,25593
316,25609
314,25624
309,25639
302,25655
295,25670
289,25686
288,25701
287,25716
288,25732
288,25747
290,25762
290,25778
291,25793
292,25808
292,25824
292,25839
293,25854
294,25870
297,25885
301,25901
305,25916
307,25931
305,25947
300,25962
296,25977
293,25993
291,26008
282,26023
306,26039
367,26054
357,26070
325,26089
307,26104
297,26118
291,26134
288,26150
288,26165
289,26179
291,26194
296,26211
302,26226
307,26241
312,26256
314,26272
313,26288
309,26302
304,26317
297,26334
291,26349
288,26363
287,26379
289,26395
290,26411
290,26425
289,26440
291,26457
293,26472
292,26486
291,26502
292,26518
293,26533
297,26548
299,26563
303,26579
305,26595
305,26609
301,26625
298,26641
294,26656
291,26670
285,26686
301,26702
366,26718
361,26731
333,26746
316,26764
302,26779
295,26791
290,26807
289,26824
290,26840
293,26854
296,26869
300,26886
307,26902
313,26938
316,26954
310,26971
303,26986
297,27000
293,27017
289,27034
289,27049
289,27065
290,27084
290,27100
291,27113
291,27129
290,27146
291,27161
292,27175
291,27191
292,27207
293,27223
297,27237
300,27252
304,27269
305,27284
301,27298
298,27314
296,27330
294,27345
291,27360
281,27375
317,27392
372,27407
352,27420
325,27437
308,27453
298,27468
293,27482
290,27498
288,27514
290,27530
294,27547
298,27563
304,27578
309,27593
314,27609
317,27624
317,27639
312,27655
305,27670
298,27685
293,27701
290,27716
290,27731
290,27747
291,27762
292,27778
292,27793
291,27808
293,27824
292,27838
293,27854
292,27870
293,27885
295,27899
298,27916
301,27930
303,27947
304,27961
300,27976
297,27992
295,28007
294,28022
285,28038
294,28053
350,28068
362,28084
335,28099
313,28114
301,28130
295,28145
292,28161
291,28176
292,28191
294,28207
297,28222
302,28237
308,28255
314,28272
318,28288
318,28301
313,28316
307,28334
301,28348
295,28362
291,28378
289,28394
290,28409
290,28424
290,28439
291,28455
292,28471
293,28485
292,28500
292,28517
292,28532
292,28547
293,28562
296,28578
300,28595
304,28631
300,28647
298,28663
295,28679
294,28693
288,28709
288,28726
348,28741
368,28755
341,28771
318,28787
303,28803
296,28817
291,28832
289,28849
289,28864
291,28878
294,28894
298,28910
305,28925
312,28940
315,28955
317,28972
315,28987
308,29008
300,29024
294,29039
290,29056
289,29070
289,29086
290,29101
290,29116
291,29131
292,29147
292,29162
291,29177
292,29193
293,29208
293,29223
293,29239
293,29254
292,29270
296,29285
298,29300
303,29316
305,29331
303,29346
298,29362
296,29376
294,29392
293,29407
283,29423
302,29437
365,29454
363,29468
334,29484
315,29499
303,29514
295,29530
292,29545
291,29560
290,29576
293,29591
296,29606
301,29622
307,29637
312,29652
316,29668
318,29683
315,29699
309,29717
301,29733
295,29747
291,29762
289,29779
289,29795
290,29809
291,29825
290,29841
291,29856
292,29871
292,29886
292,29902
291,29918
292,29931
293,29946
294,29963
294,29978
297,29992
299,30008
304,30024
306,30040
304,30053
300,30068
295,30085
294,30100
292,30114
284,30130
302,30146
367,30161
362,30175
333,30190
314,30206
301,30222
293,30236
288,30252
289,30268
290,30284
292,30319
302,30336
309,30352
315,30367
317,30382
316,30398
310,30414
304,30430
298,30444
292,30464
290,30479
288,30493
289,30508
290,30524
290,30540
291,30554
290,30568
291,30585
291,30601
290,30615
292,30629
291,30646
292,30662
294,30676
295,30690
297,30706
302,30723
304,30737
305,30751
302,30768
298,30784
294,30797
294,30812
288,30828
292,30844
350,30859
365,30872
340,30889
316,30906
303,30921
295,30940
290,30954
289,30971
291,30988
294,31001
298,31016
302,31033
309,31048
314,31063
318,31078
318,31094
314,31110
308,31124
302,31139
296,31156
292,31173
291,31187
290,31204
290,31220
292,31234
292,31248
292,31264
292,31281
292,31295
292,31308
293,31326
293,31342
293,31355
297,31370
301,31386
304,31403
307,31417
302,31430
298,31448
296,31463
294,31477
290,31492
283,31508
313,31524
371,31538
355,31552
329,31569
311,31585
298,31599
293,31613
289,31630
289,31646
290,31661
292,31674
297,31691
301,31708
307,31721
313,31735
317,31752
318,31768
313,31782
307,31796
300,31813
294,31828
291,31843
289,31857
288,31874
289,31892
290,31906
290,31922
290,31938
290,31953
291,31969
292,32005
292,32022
296,32038
300,32052
303,32068
305,32084
302,32101
297,32114
295,32130
293,32147
288,32161
284,32176
320,32191
374,32207
349,32223
324,32236
309,32252
299,32269
292,32284
289,32297
288,32313
289,32329
293,32345
297,32359
301,32374
307,32391
313,32405
318,32419
317,32435
313,32451
305,32466
298,32481
294,32496
291,32513
289,32528
289,32541
289,32557
290,32573
290,32588
290,32603
290,32618
291,32636
290,32652
291,32667
292,32683
295,32698
300,32713
302,32729
303,32744
298,32759
295,32775
294,32790
292,32805
287,32822
284,32841
353,32856
367,32871
338,32888
313,32904
301,32918
295,32933
291,32950
289,32965
289,32978
291,32994
295,33011
301,33026
307,33040
312,33055
316,33072
317,33087
315,33101
310,33117
303,33133
296,33148
291,33162
290,33177
290,33195
290,33209
290,33223
290,33239
290,33255
291,33270
291,33285
291,33300
291,33316
293,33332
296,33349
300,33364
303,33380
303,33395
300,33411
295,33426
293,33440
292,33456
285,33471
290,33486
343,33502
362,33517
336,33532
313,33548
302,33563
295,33579
292,33594
291,33609
291,33625
293,33639
297,33656
303,33692
315,33709
318,33724
318,33739
314,33755
307,33771
299,33786
294,33802
291,33817
290,33832
288,33848
290,33863
291,33879
291,33894
290,33909
291,33925
291,33940
292,33955
291,33971
292,33986
297,34001
301,34017
303,34032
305,34048
301,34063
297,34078
294,34097
292,34112
287,34126
284,34142
328,34158
372,34173
346,34187
323,34203
308,34220
296,34234
292,34248
289,34264
289,34280
290,34295
293,34310
297,34325
301,34341
308,34357
313,34371
316,34386
315,34403
309,34418
303,34433
298,34448
293,34464
290,34480
289,34493
289,34508
290,34526
291,34540
291,34554
291,34570
290,34586
292,34601
291,34616
292,34631
293,34648
297,34663
299,34677
302,34693
305,34709
300,34724
297,34740
293,34759
292,34775
286,34791
290,34805
346,34821
370,34836
342,34851
320,34867
305,34882
295,34896
291,34913
289,34927
288,34944
290,34958
293,34973
298,34989
305,35004
309,35019
315,35035
317,35050
315,35065
310,35081
302,35096
296,35111
292,35127
290,35141
288,35158
289,35172
288,35187
290,35203
291,35218
290,35233
290,35249
290,35264
291,35279
292,35295
292,35310
296,35325
297,35342
302,35379
300,35395
297,35410
292,35426
292,35441
286,35458
288,35473
346,35489
368,35505
339,35520
317,35535
302,35555
294,35569
289,35585
289,35602
290,35617
293,35632
296,35647
301,35663
306,35679
313,35693
316,35708
318,35725
314,35740
306,35753
300,35770
296,35786
292,35802
290,35815
289,35830
289,35848
291,35862
292,35876
292,35892
291,35908
291,35923
292,35938
292,35953
292,35970
294,35985
298,35999
301,36015
304,36031
303,36046
300,36060
297,36076
295,36092
293,36107
287,36121
284,36136
329,36154
370,36168
344,36183
320,36198
306,36214
297,36230
293,36244
290,36263
290,36280
293,36293
296,36307
301,36325
307,36340
312,36355
318,36369
319,36385
316,36402
309,36416
304,36430
298,36447
293,36463
290,36477
289,36492
289,36508
290,36525
290,36539
290,36552
290,36570
292,36586
292,36599
292,36614
292,36631
291,36646
292,36662
295,36681
299,36699
303,36715
305,36729
304,36744
299,36761
296,36777
293,36792
292,36805
284,36823
298,36839
365,36852
365,36867
336,36883
315,36899
302,36914
295,36928
290,36944
288,36961
289,36975
292,36993
296,37009
302,37024
306,37040
312,37076
316,37094
311,37109
302,37124
296,37139
292,37156
290,37172
288,37186
289,37201
289,37218
290,37232
292,37246
290,37262
291,37278
291,37294
293,37308
292,37323
293,37340
292,37355
294,37368
296,37384
296,37400
299,37415
300,37430
304,37445
306,37462
306,37477
301,37491
299,37507
296,37523
294,37537
286,37552
293,37567
352,37583
368,37599
340,37613
320,37627
305,37645
295,37659
291,37673
290,37689
290,37705
291,37723
295,37738
300,37753
307,37769
312,37784
316,37799
317,37815
314,37830
309,37844
302,37860
296,37875
291,37891
288,37906
288,37921
288,37937
289,37952
290,37967
289,37983
290,37997
291,38012
291,38028
291,38043
291,38059
291,38074
293,38089
294,38105
293,38119
295,38134
298,38150
301,38165
304,38180
305,38196
302,38211
298,38226
295,38242
294,38257
291,38272
283,38287
322,38302
370,38318
351,38333
324,38348
309,38364
299,38379
293,38393
291,38409
290,38424
292,38441
295,38459
301,38474
307,38489
311,38504
316,38520
318,38535
319,38550
313,38571
303,38588
296,38603
290,38618
289,38633
289,38650
290,38666
289,38680
290,38695
292,38712
293,38728
292,38764
293,38779
293,38797
294,38812
296,38827
299,38843
304,38859
305,38875
303,38889
298,38904
296,38921
295,38936
293,38950
284,38966
305,38982
367,38998
358,39012
331,39027
313,39044
301,39059
295,39073
292,39089
291,39105
293,39120
294,39135
298,39150
303,39166
310,39184
317,39198
318,39215
318,39231
313,39245
306,39260
300,39276
293,39292
288,39307
288,39320
288,39337
288,39354
289,39367
289,39382
290,39399
291,39415
291,39429
291,39443
291,39459
291,39476
293,39490
295,39504
297,39521
301,39537
304,39552
304,39566
302,39582
297,39599
294,39613
292,39626
289,39644
285,39660
336,39673
376,39688
353,39705
323,39720
307,39735
298,39749
292,39766
288,39782
288,39796
290,39811
292,39827
297,39843
303,39858
310,39872
313,39888
317,39907
316,39921
309,39937
303,39954
295,39968
291,39983
288,39998
287,40014
288,40030
288,40044
290,40059
290,40076
291,40091
289,40105
291,40121
292,40137
292,40153
293,40166
294,40182
298,40199
303,40213
305,40227
302,40243
297,40259
295,40274
293,40289
292,40304
283,40321
297,40336
362,40350
368,40366
337,40382
315,40396
303,40413
294,40449
289,40466
291,40483
293,40502
299,40518
306,40537
313,40552
317,40565
316,40582
315,40598
308,40613
300,40628
293,40643
288,40662
288,40677
288,40692
288,40708
290,40723
289,40738
290,40754
291,40769
292,40784
292,40800
292,40815
293,40830
297,40846
301,40861
303,40877
304,40891
298,40907
296,40922
293,40937
292,40952
286,40968
284,40983
334,40998
372,41014
346,41029
320,41044
305,41060
296,41075
291,41091
290,41105
289,41120
291,41136
294,41151
299,41166
304,41182
312,41197
316,41212
319,41228
317,41243
312,41259
305,41274
297,41288
293,41304
289,41319
288,41334
289,41350
289,41369
290,41383
290,41399
291,41416
292,41433
292,41446
294,41461
296,41479
300,41493
304,41507
301,41523
298,41539
294,41554
293,41569
292,41584
285,41601
291,41616
345,41629
364,41645
338,41662
314,41676
301,41691
294,41706
291,41722
291,41738
291,41752
293,41767
297,41784
302,41799
309,41812
314,41828
319,41845
320,41860
317,41874
311,41889
304,41906
295,41921
291,41935
289,41951
288,41967
288,41981
289,41996
289,42011
291,42028
292,42043
292,42057
292,42073
293,42092
296,42107
300,42142
303,42161
298,42177
295,42191
293,42205
292,42222
283,42240
297,42253
355,42267
369,42285
336,42300
314,42314
302,42329
295,42345
291,42361
288,42377
288,42397
292,42415
297,42430
302,42443
308,42460
314,42477
318,42492
317,42507
311,42522
303,42539
297,42554
292,42567
289,42583
288,42600
287,42614
288,42629
289,42644
291,42660
292,42676
291,42690
292,42705
292,42722
295,42737
298,42752
301,42767
303,42783
303,42798
299,42812
295,42826
293,42843
291,42858
286,42872
283,42888
331,42904
375,42919
347,42934
323,42949
307,42966
296,42981
291,42994
287,43011
288,43027
289,43041
292,43056
297,43071
302,43087
309,43103
314,43117
317,43132
315,43149
308,43164
302,43179
296,43194
291,43210
287,43226
286,43239
287,43255
287,43272
287,43286
290,43300
290,43316
292,43332
291,43347
291,43362
292,43377
293,43394
298,43409
299,43423
302,43439
304,43455
301,43470
296,43484
293,43499
292,43516
289,43531
282,43549
324,43564
374,43579
352,43594
325,43610
308,43625
298,43640
290,43655
288,43671
288,43685
289,43701
291,43716
295,43731
301,43747
309,43762
314,43778
318,43794
316,43830
302,43846
296,43862
291,43877
288,43892
287,43909
288,43924
289,43939
290,43955
290,43970
291,43985
292,44001
292,44016
291,44032
292,44047
294,44062
297,44078
300,44093
302,44107
302,44123
299,44138
294,44153
293,44169
291,44184
288,44199
283,44215
321,44229
369,44244
349,44260
322,44285
299,44303
291,44316
290,44331
290,44348
290,44365
293,44380
296,44393
301,44410
309,44426
315,44440
318,44454
318,44471
314,44487
307,44502
300,44515
294,44532
289,44549
288,44563
288,44576
288,44594
290,44609
290,44623
290,44638
292,44654
292,44670
292,44685
292,44699
292,44716
295,44732
298,44746
301,44760
303,44777
303,44793
300,44807
297,44821
295,44837
292,44854
286,44868
287,44882
332,44899
368,44915
340,44930
318,44943
306,44960
296,44977
292,44990
289,45008
290,45025
293,45040
296,45054
300,45070
306,45086
313,45101
317,45115
319,45130
317,45147
309,45162
302,45176
296,45192
291,45208
289,45223
288,45238
289,45253
289,45270
290,45285
292,45299
292,45315
293,45331
292,45346
292,45360
293,45375
292,45392
294,45407
298,45421
301,45436
304,45453
306,45468
301,45484
298,45519
292,45538
285,45553
294,45568
350,45583
370,45600
337,45616
315,45630
304,45645
295,45662
290,45677
288,45690
289,45706
289,45723
294,45741
299,45756
305,45771
311,45787
315,45801
316,45816
313,45832
307,45847
299,45862
293,45878
290,45893
287,45908
287,45924
288,45939
288,45955
290,45970
291,45985
292,46001
292,46015
292,46031
292,46046
293,46061
293,46076
293,46092
295,46107
299,46123
301,46138
304,46154
305,46176
301,46192
297,46205
294,46221
293,46238
285,46255
296,46269
354,46284
371,46301
338,46316
317,46329
305,46345
296,46361
290,46376
287,46391
288,46406
290,46423
293,46438
298,46452
307,46481
314,46496
317,46512
316,46527
310,46543
302,46559
296,46574
291,46589
289,46605
287,46620
286,46636
288,46651
290,46666
291,46681
292,46697
290,46711
291,46727
291,46742
292,46757
292,46773
293,46788
297,46803
300,46819
302,46834
303,46850
300,46865
297,46880
294,46895
293,46911
288,46925
283,46941
323,46956
371,46971
350,46987
322,47002
307,47017
297,47033
291,47048
290,47064
289,47078
291,47093
294,47109
297,47124
303,47139
308,47157
314,47193
316,47211
308,47228
299,47244
293,47258
289,47275
288,47292
288,47307
287,47322
289,47337
291,47353
291,47369
292,47383
291,47398
291,47415
292,47430
295,47443
297,47459
301,47475
303,47491
300,47505
299,47520
296,47537
294,47552
292,47565
284,47581
289,47598
348,47612
363,47627
338,47642
314,47659
301,47674
296,47688
293,47704
291,47720
290,47734
293,47749
297,47764
302,47780
308,47796
313,47810
317,47825
320,47842
317,47856
311,47870
304,47886
297,47902
292,47918
290,47934
289,47950
289,47967
289,47981
291,47994
291,48012
292,48027
292,48043
292,48065
293,48080
296,48098
300,48114
303,48128
304,48143
302,48160
298,48176
295,48189
293,48205
291,48222
282,48237
301,48250
360,48266
364,48282
331,48297
313,48312
301,48327
294,48344
290,48359
289,48373
288,48389
290,48405
294,48420
299,48434
305,48449
310,48466
315,48482
316,48495
314,48510
308,48527
300,48542
294,48557
291,48572
288,48588
289,48604
289,48618
289,48632
291,48650
292,48667
291,48680
290,48698
291,48714
292,48728
295,48742
297,48759
299,48775
303,48789
302,48803
298,48820
295,48836
289,48851
290,48887
305,48905
373,48922
351,48935
327,48950
310,48968
297,48985
290,48999
288,49013
287,49030
289,49046
292,49060
296,49075
302,49091
308,49107
313,49122
316,49136
315,49153
312,49169
304,49183
298,49198
292,49214
289,49230
288,49245
288,49259
289,49275
289,49292
290,49306
292,49319
291,49337
291,49353
291,49368
294,49381
298,49402
301,49417
303,49431
301,49446
297,49464
294,49478
292,49492
292,49508
282,49525
301,49541
364,49554
365,49569
335,49587
313,49602
302,49615
294,49632
291,49648
290,49664
289,49677
292,49693
295,49710
301,49725
306,49738
312,49755
315,49771
316,49786
313,49800
305,49816
300,49832
293,49848
289,49861
288,49878
287,49894
288,49910
289,49933
290,49947
289,49965
291,49981
292,49995
295,50010
298,50026
301,50042
301,50057
297,50071
294,50087
291,50104
292,50118
284,50137
293,50154
355,50169
356,50183
330,50199
310,50215
299,50231
294,50245
293,50260
291,50277
293,50292
296,50307
300,50322
304,50338
312,50354
316,50368
319,50383
318,50400
315,50415
307,50429
300,50445
293,50461
291,50477
288,50491
287,50506
288,50523
289,50538
290,50553
290,50590
293,50608
296,50624
298,50637
302,50654
303,50671
303,50686
300,50701
297,50716
294,50733
292,50748
286,50762
311,50778
368,50794
356,50809
328,50824
313,50839
302,50856
295,50870
291,50884
290,50899
291,50917
295,50932
298,50946
302,50961
308,50978
314,50993
317,51007
317,51023
311,51040
305,51055
299,51069
294,51085
289,51101
286,51117
286,51131
288,51146
288,51163
290,51178
289,51192
289,51208
291,51225
294,51239
297,51254
295,51270
298,51287
295,51302
292,51316
289,51332
287,51348
283,51363
290,51378
342,51393
365,51409
335,51425
315,51439
303,51454
296,51472
289,51486
288,51501
289,51517
293,51533
296,51549
299,51563
305,51578
313,51597
316,51612
315,51629
311,51643
304,51658
298,51674
291,51690
286,51705
285,51721
284,51736
284,51751
285,51767
287,51783
284,51807
288,51821
289,51837
291,51855
293,51870
297,51885
297,51900
294,51916
290,51932
289,51946
288,51961
283,51978
290,51993
343,52007
358,52023
331,52039
309,52055
297,52069
293,52084
290,52101
290,52116
290,52130
293,52146
296,52162
302,52177
308,52192
314,52207
319,52224
319,52239
317,52254
310,52291
293,52308
291,52325
290,52342
290,52358
291,52374
292,52389
292,52406
292,52420
294,52436
296,52451
298,52467
300,52483
303,52498
302,52512
298,52529
295,52544
292,52559
290,52574
283,52590
290,52604
344,52620
358,52635
331,52652
309,52666
296,52682
289,52697
286,52713
285,52727
286,52743
287,52758
291,52774
296,52789
302,52805
308,52819
313,52836
315,52850
312,52867
305,52881
299,52897
293,52912
290,52928
287,52942
286,52958
287,52973
289,52988
289,53004
289,53020
290,53035
291,53051
293,53070
296,53086
297,53100
297,53115
293,53133
287,53149
285,53163
284,53178
283,53195
282,53210
331,53224
370,53239
348,53256
318,53271
301,53285
289,53301
283,53317
280,53332
279,53347
283,53362
289,53379
294,53394
300,53408
304,53424
310,53440
315,53454
316,53469
316,53484
313,53500
312,53516
314,53530
311,53545
312,53562
307,53577
303,53592
301,53607
297,53623
297,53639
298,53654
298,53678
298,53696
297,53711
292,53726
287,53741
284,53758
283,53774
277,53790
273,53807
328,53823
355,53837
329,53851
304,53868
287,53884
277,53898
278,53912
283,53928
289,53945
295,53960
301,53996
311,54013
318,54030
320,54044
318,54059
313,54076
306,54092
299,54107
295,54121
290,54137
295,54154
297,54168
300,54182
305,54199
312,54215
317,54230
320,54243
320,54260
325,54277
325,54291
318,54304
311,54322
302,54337
293,54351
284,54366
273,54382
293,54398
350,54413
334,54427
305,54444
289,54460
284,54474
285,54488
288,54505
294,54521
302,54538
307,54553
313,54569
320,54585
327,54598
330,54614
334,54631
333,54645
322,54660
311,54675
296,54691
289,54707
284,54721
281,54736
278,54753
279,54768
279,54782
280,54798
281,54814
283,54830
283,54844
285,54859
279,54876
274,54890
272,54904
274,54920
278,54937
277,54951
302,54966
362,54981
367,54998
339,55013
323,55027
313,55043
305,55059
298,55074
296,55089
296,55104
297,55120
300,55136
303,55149
311,55164
317,55182
324,55196
327,55211
324,55226
317,55245
309,55261
305,55276
297,55291
295,55307
291,55321
284,55336
278,55352
273,55367
274,55383
280,55398
291,55413
301,55429
307,55443
307,55458
305,55474
302,55490
296,55515
345,55530
384,55546
359,55562
331,55576
313,55592
296,55608
286,55623
275,55639
275,55655
277,55691
286,55707
289,55723
296,55739
300,55753
299,55770
296,55785
287,55800
283,55816
282,55831
281,55846
283,55862
287,55877
286,55892
293,55908
298,55923
303,55938
306,55953
311,55968
314,55984
311,56001
303,56016
300,56034
293,56049
284,56064
291,56079
350,56095
360,56111
334,56125
314,56140
298,56157
288,56172
284,56186
283,56202
284,56218
283,56233
291,56248
294,56263
304,56280
309,56295
314,56308
318,56324
319,56341
315,56355
307,56370
302,56385
295,56401
290,56417
291,56431
295,56446
298,56463
301,56478
310,56493
316,56508
322,56524
323,56540
315,56553
311,56568
300,56586
293,56600
283,56614
278,56630
321,56646
361,56662
332,56676
309,56691
291,56708
282,56725
278,56739
277,56756
276,56772
280,56786
284,56801
289,56817
294,56834
300,56848
302,56861
307,56879
307,56895
302,56908
298,56923
295,56940
293,56955
293,56970
293,56984
293,57000
296,57017
300,57031
301,57046
305,57062
308,57078
309,57093
304,57106
297,57123
295,57139
292,57153
286,57167
283,57184
330,57200
363,57214
341,57229
317,57245
302,57262
293,57275
290,57289
288,57307
290,57322
292,57339
297,57382
312,57401
316,57418
318,57433
315,57447
309,57469
301,57485
297,57499
295,57515
296,57531
296,57546
295,57561
296,57576
300,57592
303,57608
309,57622
312,57637
314,57654
310,57669
305,57682
302,57699
301,57715
293,57731
303,57744
352,57759
366,57777
336,57791
316,57805
304,57821
295,57838
290,57852
288,57867
287,57882
289,57900
292,57914
296,57928
301,57944
306,57960
311,57975
312,57990
311,58005
305,58021
296,58037
289,58051
286,58066
284,58083
282,58098
279,58113
275,58128
278,58144
282,58160
287,58173
291,58192
291,58208
288,58223
284,58238
281,58254
280,58269
274,58284
286,58300
341,58315
346,58331
319,58345
302,58360
293,58376
288,58391
286,58406
285,58422
287,58437
290,58452
294,58468
298,58483
304,58499
307,58514
311,58529
311,58545
309,58559
303,58574
296,58590
292,58605
289,58620
289,58636
290,58651
291,58667
293,58682
296,58697
299,58713
304,58728
308,58743
309,58759
304,58774
299,58789
295,58804
293,58819
286,58834
292,58850
344,58865
357,58881
331,58895
312,58911
299,58927
291,58942
286,58957
286,58974
287,58989
290,59004
292,59020
297,59036
302,59072
312,59088
311,59104
308,59120
302,59134
296,59151
292,59166
290,59183
290,59197
290,59214
291,59240
295,59255
300,59270
304,59285
308,59302
306,59318
300,59332
295,59347
293,59364
288,59379
282,59394
306,59409
358,59425
344,59441
318,59454
304,59469
295,59487
290,59501
288,59515
288,59531
291,59547
295,59563
299,59577
303,59592
308,59609
313,59624
316,59637
315,59657
311,59673
304,59687
299,59702
295,59718
291,59735
290,59749
290,59762
289,59780
289,59796
291,59809
294,59824
298,59841
302,59856
302,59871
298,59885
294,59901
290,59918
286,59932
280,59947
285,59963
343,59979
356,59994
331,60007
312,60024
299,60040
291,60054
287,60068
286,60085
289,60101
292,60115
295,60129
298,60146
303,60163
308,60177
313,60190
315,60208
313,60223
307,60237
301,60252
295,60268
292,60284
290,60299
290,60313
289,60329
290,60346
289,60362
292,60378
295,60394
300,60409
303,60424
303,60439
298,60455
293,60470
290,60484
288,60499
280,60516
294,60531
353,60546
358,60561
329,60577
309,60593
298,60606
291,60621
288,60638
287,60653
288,60667
291,60683
295,60699
301,60715
306,60730
311,60767
316,60784
312,60800
306,60814
301,60829
297,60847
295,60863
294,60876
293,60892
293,60908
292,60923
292,60938
294,60953
297,60969
301,60985
303,60999
302,61015
297,61031
291,61047
287,61072
277,61087
292,61104
356,61123
342,61138
314,61153
300,61168
291,61185
286,61200
285,61214
285,61230
287,61246
290,61261
295,61276
299,61291
305,61307
310,61323
314,61336
314,61351
312,61369
306,61383
301,61398
298,61413
295,61429
294,61445
294,61459
295,61474
294,61491
294,61506
296,61520
299,61536
303,61552
306,61568
304,61582
298,61597
294,61614
290,61629
286,61642
281,61659
311,61675
361,61689
342,61704
318,61719
302,61735
292,61751
287,61765
285,61780
286,61797
289,61812
292,61829
296,61846
302,61862
307,61877
310,61891
313,61908
312,61924
308,61938
304,61953
301,61969
296,61985
293,62000
291,62014
291,62030
290,62047
291,62061
292,62075
295,62092
300,62108
304,62123
306,62137
303,62153
297,62170
292,62184
289,62198
283,62215
283,62231
337,62245
359,62260
336,62277
311,62292
297,62307
291,62321
287,62338
286,62354
287,62368
291,62383
294,62399
296,62415
299,62431
306,62467
313,62484
309,62500
303,62515
297,62529
293,62546
292,62563
291,62580
291,62596
291,62612
292,62627
294,62641
297,62656
302,62672
306,62688
307,62702
304,62717
298,62734
293,62749
290,62763
283,62778
286,62794
346,62810
360,62824
334,62839
312,62856
298,62872
290,62897
286,62913
285,62928
287,62944
291,62960
294,62977
300,62992
304,63006
308,63023
310,63038
309,63053
305,63068
299,63084
295,63099
292,63115
291,63130
291,63145
291,63161
292,63176
293,63192
295,63207
299,63222
302,63238
306,63253
304,63268
298,63284
294,63301
290,63319
283,63333
286,63347
332,63363
357,63380
331,63394
310,63409
300,63424
293,63440
289,63456
288,63470
290,63485
291,63502
295,63517
300,63532
304,63547
309,63563
312,63579
313,63593
313,63608
309,63625
303,63640
298,63654
296,63670
294,63686
294,63702
294,63716
293,63731
294,63748
296,63763
299,63777
303,63793
306,63809
304,63824
298,63839
293,63854
289,63870
285,63886
280,63900
307,63916
360,63932
341,63947
317,63962
304,63977
294,63993
288,64009
286,64025
287,64043
289,64059
293,64072
297,64087
301,64103
307,64119
311,64135
313,64169
307,64188
300,64204
295,64219
293,64233
292,64250
291,64267
289,64281
290,64295
290,64312
293,64328
296,64343
299,64357
301,64373
298,64390
292,64404
288,64418
285,64435
278,64451
281,64465
328,64479
358,64496
329,64513
306,64526
295,64540
289,64558
286,64574
285,64587
286,64602
288,64618
293,64634
299,64649
303,64663
308,64679
313,64696
315,64711
312,64736
304,64753
297,64769
292,64787
290,64802
289,64818
290,64833
290,64849
291,64865
293,64880
295,64896
301,64911
304,64926
305,64942
301,64957
295,64972
292,64988
289,65003
281,65018
293,65034
348,65049
350,65064
323,65079
305,65094
295,65110
289,65125
287,65140
286,65156
288,65171
290,65186
295,65202
299,65217
303,65231
308,65248
312,65262
313,65278
311,65293
306,65308
301,65324
296,65339
293,65354
292,65370
291,65385
292,65400
292,65416
292,65431
294,65445
296,65461
300,65476
305,65495
305,65511
299,65526
296,65540
295,65555
291,65571
281,65587
309,65601
355,65616
344,65633
316,65648
302,65662
294,65678
291,65694
291,65710
293,65723
295,65738
298,65756
304,65771
308,65784
312,65800
314,65816
314,65833
311,65867
297,65884
290,65901
284,65916
283,65930
284,65946
287,65964
290,65979
290,65992
291,66009
294,66025
299,66039
304,66054
309,66069
309,66085
304,66101
299,66115
296,66130
293,66147
284,66162
308,66176
360,66191
353,66207
324,66223
306,66239
297,66256
292,66273
290,66286
291,66300
293,66317
295,66333
298,66348
302,66361
306,66378
312,66395
314,66408
313,66422
308,66439
301,66455
294,66469
289,66484
285,66500
284,66516
284,66532
286,66557
287,66574
287,66588
288,66605
291,66621
298,66636
301,66652
302,66667
300,66682
295,66698
290,66712
288,66728
281,66743
286,66758
339,66774
358,66789
329,66804
308,66820
295,66835
287,66850
283,66865
283,66881
283,66895
286,66911
290,66926
295,66941
300,66956
306,66971
311,66987
313,67002
311,67016
308,67032
303,67047
298,67062
293,67078
290,67093
290,67108
292,67124
293,67138
293,67153
293,67169
294,67184
294,67200
297,67215
300,67230
303,67246
303,67261
299,67276
294,67292
291,67307
289,67321
280,67338
286,67352
336,67367
355,67383
329,67398
306,67414
297,67429
291,67444
288,67460
288,67475
290,67490
291,67505
296,67522
301,67558
312,67574
316,67590
318,67605
315,67620
309,67637
301,67652
297,67667
295,67683
294,67701
294,67718
295,67733
295,67747
296,67763
296,67779
294,67794
296,67809
299,67824
302,67841
304,67856
302,67870
299,67886
295,67902
292,67917
289,67931
282,67946
292,67963
352,67979
355,67992
329,68007
309,68024
298,68039
291,68054
288,68069
285,68085
286,68101
287,68115
289,68130
293,68147
297,68162
303,68176
309,68192
312,68208
312,68224
308,68238
304,68253
300,68270
298,68285
297,68298
296,68314
296,68331
297,68345
299,68362
300,68388
299,68404
299,68422
302,68439
305,68454
306,68469
304,68485
298,68499
293,68514
291,68530
288,68545
280,68560
302,68576
361,68591
353,68606
325,68622
308,68637
297,68653
291,68668
289,68683
289,68699
290,68714
292,68729
296,68745
300,68760
304,68774
307,68791
309,68805
310,68820
307,68836
304,68851
297,68867
292,68882
290,68897
290,68913
291,68928
293,68943
293,68959
296,68974
296,68988
296,69005
296,69019
299,69036
301,69050
302,69065
301,69081
297,69096
293,69111
289,69127
286,69146
278,69160
287,69175
337,69190
357,69207
328,69223
307,69258
290,69274
289,69292
289,69307
290,69320
294,69337
299,69354
304,69369
309,69383
311,69399
315,69415
317,69431
314,69444
309,69459
303,69477
299,69491
297,69506
296,69521
296,69538
295,69553
295,69567
296,69582
296,69599
296,69614
297,69628
297,69644
298,69660
298,69676
294,69690
291,69705
288,69722
286,69737
281,69751
286,69767
337,69783
355,69798
330,69813
311,69828
300,69844
295,69860
292,69886
291,70009
316,70024
314,70039
309,70054
303,70070
298,70085
295,70100
294,70115
294,70130
295,70146
294,70161
294,70176
294,70192
293,70207
296,70222
297,70238
300,70253
302,70268
300,70284
296,70299
292,70315
290,70330
288,70345
281,70361
304,70376
361,70391
351,70407
324,70422
308,70437
297,70452
290,70468
287,70482
285,70499
287,70513
289,70529
293,70544
297,70559
301,70575
307,70590
311,70605
313,70621
311,70636
308,70651
304,70667
301,70682
297,70697
296,70715
295,70732
294,70749
294,70763
294,70778
293,70795
295,70810
298,70824
300,70840
303,70856
304,70872
300,70886
297,70901
293,70918
291,70933
286,70947
280,70963
311,70979
365,70995
342,71031
299,71048
290,71064
286,71079
284,71094
284,71110
287,71127
291,71142
296,71156
301,71172
305,71188
309,71203
313,71218
314,71233
312,71249
305,71265
299,71278
296,71294
294,71311
294,71326
293,71340
293,71355
292,71372
292,71387
292,71401
293,71416
295,71433
300,71451
304,71465
303,71482
298,71498
294,71513
292,71526
287,71543
283,71560
326,71573
356,71587
336,71604
308,71620
294,71634
288,71649
284,71665
283,71682
284,71696
286,71710
289,71727
294,71743
300,71757
305,71772
309,71788
313,71804
314,71819
312,71832
309,71849
304,71866
300,71880
298,71894
297,71911
296,71927
297,71943
296,71960
296,71975
295,71991
296,72007
297,72022
301,72037
303,72052
301,72068
297,72083
294,72098
293,72114
290,72129
284,72144
306,72160
363,72179
342,72194
317,72208
303,72223
294,72240
289,72255
286,72269
286,72285
287,72301
289,72316
293,72330
296,72345
301,72363
306,72377
310,72391
311,72407
310,72423
306,72438
302,72453
298,72468
295,72484
295,72500
295,72514
295,72529
295,72546
295,72561
295,72576
293,72591
295,72607
298,72623
301,72636
303,72651
302,72669
298,72685
296,72721
288,72737
282,72754
325,72769
366,72783
344,72800
317,72816
302,72832
294,72846
289,72861
288,72879
289,72893
293,72907
294,72927
296,72943
300,72957
304,72972
308,72988
311,73005
311,73019
309,73032
305,73050
300,73066
295,73080
294,73094
294,73111
292,73127
291,73142
291,73155
291,73172
291,73189
290,73203
291,73217
293,73234
297,73250
299,73265
300,73278
297,73295
292,73312
290,73325
290,73339
285,73357
286,73373
341,73388
360,73401
336,73418
311,73435
298,73449
291,73462
288,73480
286,73496
287,73510
289,73524
292,73541
297,73558
302,73571
307,73585
311,73603
314,73619
314,73635
311,73652
304,73668
299,73683
296,73698
294,73712
293,73730
292,73745
291,73758
290,73774
290,73791
290,73806
290,73821
292,73836
296,73852
298,73869
299,73886
295,73901
294,73916
292,73933
289,73949
283,73963
299,73978
352,73995
347,74010
320,74024
306,74040
298,74056
293,74072
291,74086
291,74101
293,74118
297,74133
301,74147
304,74163
309,74180
313,74195
315,74209
316,74224
314,74242
308,74257
303,74270
298,74287
295,74303
293,74318
291,74333
291,74348
292,74369
291,74384
291,74419
295,74437
299,74454
302,74468
303,74482
299,74501
295,74517
291,74531
289,74546
286,74562
281,74578
326,74593
363,74607
341,74624
316,74640
302,74654
294,74669
290,74686
289,74702
289,74717
292,74730
295,74747
299,74764
304,74778
308,74792
312,74809
315,74825
314,74840
310,74854
304,74870
298,74888
294,74901
293,74915
291,74933
291,74949
291,74963
291,74977
291,74994
291,75011
290,75025
291,75039
294,75056
297,75072
300,75086
300,75100
296,75117
292,75133
289,75147
288,75161
283,75179
288,75195
347,75208
361,75223
335,75240
313,75256
300,75271
293,75285
290,75301
289,75318
289,75332
290,75346
293,75363
298,75379
302,75394
306,75408
308,75425
310,75442
310,75456
305,75469
299,75487
292,75503
287,75517
285,75532
285,75548
287,75565
289,75579
289,75593
291,75611
292,75627
293,75640
295,75655
297,75672
302,75688
304,75703
301,75716
297,75734
293,75750
291,75764
289,75778
283,75795
316,75811
359,75833
331,75847
313,75863
302,75880
296,75895
293,75910
292,75925
292,75941
293,75957
296,75971
300,75986
305,76003
310,76018
312,76033
313,76048
312,76064
308,76081
302,76116
293,76133
291,76149
291,76165
291,76179
291,76195
290,76213
289,76228
290,76242
293,76258
296,76274
299,76290
302,76304
302,76319
304,76336
300,76351
297,76365
290,76381
286,76397
333,76412
361,76427
337,76442
314,76460
300,76475
292,76488
289,76505
288,76521
288,76536
289,76550
291,76569
297,76587
303,76601
307,76615
309,76633
310,76650
309,76664
304,76678
297,76695
292,76711
290,76726
289,76739
289,76756
290,76773
292,76787
293,76801
292,76818
292,76834
293,76849
296,76863
298,76879
303,76896
305,76910
303,76924
300,76941
296,76957
293,76972
291,76986
283,77003
307,77019
365,77033
353,77047
328,77065
309,77081
299,77094
293,77109
291,77126
291,77143
292,77157
295,77170
297,77188
302,77204
307,77218
310,77232
312,77249
311,77265
308,77280
301,77297
295,77315
289,77330
287,77343
288,77360
288,77376
290,77391
291,77406
292,77421
292,77437
292,77453
293,77467
294,77483
298,77499
300,77514
300,77529
297,77544
293,77560
290,77576
288,77590
286,77605
280,77622
320,77637
365,77651
347,77667
320,77683
305,77699
298,77713
294,77728
291,77745
290,77762
291,77782
293,77816
302,77835
307,77853
309,77867
311,77881
307,77898
302,77916
295,77930
291,77943
291,77961
291,77977
292,77991
293,78006
293,78022
293,78041
291,78055
291,78070
293,78088
295,78103
297,78116
299,78133
301,78149
297,78164
296,78179
295,78194
293,78211
289,78226
290,78240
332,78256
360,78272
335,78287
314,78302
304,78317
297,78333
292,78349
291,78363
291,78379
292,78395
296,78410
300,78425
305,78440
309,78457
313,78472
315,78486
314,78501
310,78519
303,78534
296,78547
293,78564
291,78580
292,78596
293,78610
292,78625
292,78642
292,78657
292,78671
292,78687
292,78703
293,78718
296,78733
299,78748
303,78767
303,78782
298,78798
295,78813
293,78829
291,78843
285,78860
292,78875
347,78891
360,78905
332,78921
312,78937
299,78952
293,78967
289,78983
289,78998
290,79013
292,79029
295,79044
301,79059
306,79075
311,79090
314,79106
315,79121
313,79136
308,79152
302,79167
294,79182
291,79198
289,79213
289,79228
292,79244
293,79259
294,79275
296,79290
297,79305
296,79321
297,79336
298,79351
302,79367
305,79382
307,79397
307,79413
303,79428
297,79443
292,79459
287,79479
276,79514
351,79531
340,79549
310,79564
295,79579
289,79595
286,79611
287,79627
290,79641
294,79656
299,79673
306,79688
312,79704
318,79723
323,79738
324,79755
322,79770
315,79785
307,79801
299,79816
293,79832
289,79847
287,79862
287,79878
287,79893
287,79908
287,79924
288,79939
289,79954
290,79970
292,79985
295,80001
298,80016
301,80031
301,80047
299,80062
295,80076
293,80093
291,80107
285,80123
291,80138
341,80153
357,80168
331,80184
311,80199
299,80215
294,80234
291,80249
290,80264
291,80279
296,80295
299,80311
305,80324
311,80339
315,80357
319,80372
318,80386
318,80401
312,80418
306,80433
299,80447
296,80462
292,80480
293,80494
294,80508
293,80524
293,80540
290,80556
291,80570
292,80585
293,80602
293,80617
296,80631
298,80647
296,80663
290,80678
291,80693
289,80708
287,80724
284,80740
321,80754
356,80770
339,80786
314,80801
302,80816
295,80831
291,80847
289,80863
290,80876
294,80891
296,80909
300,80923
303,80937
308,80957
312,80973
315,80987
310,81001
307,81018
300,81034
295,81048
292,81062
291,81079
290,81095
290,81110
290,81124
291,81140
291,81157
291,81172
291,81207
296,81225
297,81242
296,81256
293,81270
290,81288
289,81304
287,81318
281,81333
299,81349
350,81366
341,81380
320,81394
306,81411
297,81427
292,81441
290,81455
290,81472
291,81488
292,81502
295,81516
299,81533
304,81550
308,81563
310,81577
311,81595
307,81610
303,81627
298,81644
293,81660
292,81677
291,81695
290,81710
293,81726
293,81742
294,81757
295,81771
297,81787
299,81804
302,81818
304,81832
302,81849
299,81865
295,81880
294,81894
293,81910
287,81927
309,81941
348,81955
343,81972
318,81988
304,82002
297,82016
293,82033
291,82050
291,82064
292,82077
293,82095
297,82111
301,82124
305,82139
309,82156
311,82171
311,82186
307,82200
303,82216
298,82233
293,82247
292,82262
290,82278
291,82294
293,82309
293,82323
293,82339
294,82356
295,82370
297,82384
300,82401
304,82419
302,82434
300,82450
296,82467
292,82483
291,82497
286,82512
297,82529
344,82544
344,82557
323,82573
308,82590
298,82605
290,82619
289,82634
292,82651
293,82666
295,82680
296,82696
297,82712
302,82727
306,82742
308,82757
309,82774
302,82789
299,82803
295,82819
290,82835
287,82850
285,82866
286,82902
289,82919
289,82935
288,82949
289,82965
289,82982
290,82998
295,83012
299,83027
301,83044
304,83059
301,83073
296,83089
292,83105
289,83121
284,83134
282,83148
308,83166
357,83180
340,83194
317,83210
302,83227
292,83241
286,83256
284,83271
284,83289
286,83303
289,83317
292,83333
297,83350
303,83364
307,83379
309,83394
309,83410
306,83426
300,83440
295,83456
290,83472
288,83487
287,83502
286,83517
287,83533
288,83550
290,83569
290,83586
290,83602
291,83617
291,83632
291,83648
294,83664
298,83680
304,83694
307,83709
309,83726
306,83741
301,83756
296,83771
294,83787
288,83803
296,83817
345,83832
368,83849
338,83864
316,83881
304,83897
296,83912
290,83928
287,83943
286,83958
290,83974
292,83989
296,84004
298,84020
303,84035
309,84050
312,84066
309,84081
305,84097
297,84112
292,84127
290,84143
289,84158
288,84173
287,84189
289,84204
290,84219
291,84235
289,84250
290,84265
292,84281
292,84295
292,84312
294,84326
294,84341
300,84357
304,84372
304,84387
297,84403
294,84418
291,84433
289,84449
282,84464
290,84480
352,84495
367,84510
337,84526
314,84540
303,84557
294,84593
288,84613
290,84629
296,84644
301,84659
305,84675
311,84692
316,84707
316,84721
316,84737
310,84754
300,84768
294,84783
288,84798
284,84814
283,84830
283,84844
282,84859
279,84876
279,84891
282,84905
282,84921
282,84937
284,84953
290,84967
296,84982
301,84999
302,85014
298,85028
297,85044
297,85060
296,85075
291,85090
291,85105
344,85122
370,85137
347,85150
327,85166
314,85183
305,85198
301,85212
301,85227
302,85244
301,85259
305,85273
307,85288
312,85305
316,85320
319,85337
320,85355
316,85371
310,85386
303,85400
300,85416
293,85433
291,85448
288,85468
288,85485
289,85501
290,85516
288,85530
288,85548
291,85564
293,85577
295,85592
299,85609
297,85625
294,85639
288,85653
287,85670
286,85687
277,85700
288,85714
342,85732
358,85747
330,85762
312,85776
301,85793
296,85809
292,85823
292,85837
294,85854
294,85870
298,85884
302,85899
306,85915
311,85932
314,85946
313,85960
311,85977
305,85993
298,86007
292,86022
290,86038
286,86056
285,86071
284,86086
283,86103
285,86118
287,86132
290,86148
294,86164
301,86179
305,86194
307,86209
304,86225
300,86241
295,86256
290,86293
285,86310
351,86327
357,86341
324,86356
302,86374
287,86389
280,86404
277,86419
277,86436
279,86452
283,86465
287,86481
291,86498
298,86513
305,86526
312,86543
317,86559
316,86575
310,86589
302,86604
297,86621
296,86636
294,86650
295,86666
297,86682
297,86697
299,86712
301,86727
301,86744
304,86759
306,86773
308,86789
301,86808
294,86823
289,86839
285,86854
275,86870
291,86885
350,86900
351,86916
319,86931
300,86946
290,86962
285,86977
285,86993
284,87008
291,87024
299,87038
305,87055
312,87070
318,87086
324,87101
331,87116
333,87132
329,87147
320,87162
312,87178
303,87193
296,87208
287,87224
282,87239
282,87255
281,87270
280,87285
279,87301
287,87316
293,87331
295,87347
294,87363
290,87384
293,87400
291,87415
284,87431
319,87446
370,87462
355,87478
329,87493
317,87508
308,87528
303,87542
300,87558
297,87574
297,87589
298,87604
301,87619
309,87635
317,87651
319,87665
319,87681
313,87697
306,87712
294,87727
289,87742
285,87758
282,87774
280,87788
282,87803
285,87820
291,87835
295,87849
302,87865
310,87881
313,87897
313,87911
311,87926
308,87943
302,87959
288,87995
358,88011
338,88028
300,88043
282,88057
276,88074
270,88090
266,88105
270,88120
273,88135
282,88152
289,88167
298,88181
304,88197
312,88213
319,88228
320,88243
318,88258
314,88279
311,88293
309,88307
308,88325
305,88341
302,88355
302,88370
299,88386
300,88402
303,88417
304,88431
302,88448
296,88464
291,88478
285,88493
278,88509
272,88525
318,88540
355,88553
332,88570
302,88587
288,88601
281,88614
281,88632
283,88648
287,88663
296,88676
302,88693
310,88710
319,88723
322,88737
322,88755
317,88771
306,88784
293,88799
280,88816
272,88833
269,88846
270,88860
271,88878
273,88893
279,88907
284,88922
292,88938
298,88954
300,88969
298,88983
292,89003
292,89018
291,89032
286,89048
301,89064
368,89079
366,89094
338,89109
320,89125
306,89141
296,89155
290,89170
288,89187
291,89202
294,89217
298,89232
300,89248
305,89265
309,89285
307,89300
300,89317
295,89331
288,89348
282,89364
281,89379
281,89395
284,89410
294,89425
303,89441
309,89456
313,89472
319,89487
319,89502
313,89518
302,89533
290,89548
282,89564
268,89579
288,89594
347,89610
337,89625
308,89640
290,89657
282,89694
280,89710
283,89725
291,89745
299,89759
309,89776
321,89792
331,89807
336,89822
334,89837
326,89853
316,89869
303,89883
299,89899
295,89915
296,89930
295,89945
295,89960
294,89976
295,89992
293,90006
292,90021
286,90038
279,90053
273,90067
272,90083
265,90099
277,90115
339,90129
356,90144
334,90162
316,90176
309,90190
306,90206
304,90222
304,90237
303,90252
300,90267
299,90285
296,90299
297,90313
298,90329
303,90345
306,90360
302,90375
301,90390
296,90407
292,90422
288,90436
289,90451
291,90472
296,90486
300,90501
307,90517
316,90533
320,90548
318,90562
313,90578
309,90595
306,90609
299,90622
302,90640
357,90656
371,90671
344,90684
320,90701
301,90717
288,90731
280,90745
279,90762
278,90778
276,90792
276,90807
277,90823
283,90840
291,90854
301,90868
310,90885
315,90901
316,90915
316,90929
313,90946
307,90962
301,90977
296,90990
293,91008
290,91024
291,91037
292,91052
294,91069
296,91085
292,91099
288,91113
285,91129
276,91146
281,91161
336,91181
344,91198
311,91213
296,91228
291,91244
291,91260
293,91276
296,91290
296,91305
298,91322
300,91337
302,91353
304,91388
314,91406
310,91422
299,91436
287,91452
277,91469
273,91485
274,91499
275,91514
278,91531
279,91546
281,91560
289,91576
297,91592
300,91608
303,91622
305,91637
304,91654
298,91669
327,91683
370,91699
352,91715
316,91730
295,91744
284,91760
279,91777
278,91792
282,91805
285,91822
289,91838
293,91853
298,91867
305,91882
310,91899
312,91914
313,91932
309,91948
307,91963
306,91978
306,91994
305,92009
302,92024
305,92040
305,92055
310,92070
315,92086
317,92101
315,92116
307,92132
296,92147
284,92163
270,92178
270,92193
316,92209
335,92224
306,92239
284,92255
275,92270
273,92285
273,92301
281,92316
289,92332
296,92347
300,92362
304,92378
308,92393
313,92407
315,92424
314,92438
309,92453
300,92469
294,92484
293,92499
294,92515
296,92530
296,92546
297,92561
301,92576
298,92592
306,92607
307,92622
302,92641
298,92657
296,92673
292,92687
290,92702
328,92719
363,92734
340,92747
314,92763
297,92780
292,92794
287,92809
286,92824
281,92840
276,92856
274,92870
277,92886
279,92902
282,92917
284,92932
285,92947
281,92963
282,92979
283,92993
291,93008
296,93025
299,93041
298,93077
310,93100
313,93117
307,93131
298,93146
288,93164
276,93181
274,93196
267,93209
288,93227
349,93243
343,93257
319,93271
304,93288
295,93304
291,93318
289,93332
290,93349
299,93366
307,93380
321,93415
324,93432
327,93448
324,93462
321,93478
319,93497
315,93512
312,93527
310,93542
301,93558
288,93574
283,93588
278,93603
279,93620
276,93635
273,93649
265,93665
261,93681
263,93697
269,93711
267,93726
286,93743
354,93758
361,93772
339,93788
321,93804
306,93819
296,93834
287,93849
279,93865
273,93881
277,93895
283,93911
288,93928
292,93942
295,93957
306,93973
313,93989
312,94005
306,94018
301,94033
304,94051
307,94066
313,94080
318,94096
321,94112
324,94130
323,94146
317,94161
308,94178
304,94192
305,94209
304,94225
296,94240
295,94255
340,94271
353,94285
320,94301
289,94316
268,94331
255,94347
249,94362
246,94377
249,94393
256,94408
265,94424
281,94439
294,94454
309,94470
319,94485
324,94500
326,94516
322,94530
315,94546
304,94561
295,94577
291,94592
291,94607
292,94622
295,94638
298,94653
305,94668
309,94684
305,94700
300,94736
296,94752
293,94768
337,94784
388,94798
370,94815
341,94830
324,94845
308,94861
297,94879
293,94896
295,94911
298,94924
298,94940
305,94956
306,94971
303,94987
297,95010
288,95026
285,95042
278,95057
272,95074
270,95088
272,95105
278,95119
288,95135
296,95150
302,95166
309,95180
313,95197
317,95211
311,95226
304,95242
293,95257
282,95272
276,95288
317,95303
356,95319
330,95334
305,95349
294,95365
290,95380
290,95395
289,95411
292,95426
294,95441
298,95456
304,95472
314,95486
324,95502
329,95517
331,95533
324,95548
317,95563
311,95579
307,95597
307,95611
309,95627
306,95643
312,95659
310,95673
304,95688
296,95705
287,95720
279,95734
271,95750
263,95766
257,95781
250,95795
261,95810
320,95827
342,95842
324,95856
315,95872
310,95888
308,95903
305,95918
304,95933
300,95949
296,95965
288,95979
283,95994
281,96011
281,96026
287,96040
289,96056
293,96072
295,96088
300,96101
301,96116
300,96134
298,96148
296,96162
300,96178
308,96194
318,96209
324,96224
328,96239
322,96256
314,96271
306,96284
300,96300
290,96320
305,96334
356,96348
374,96365
342,96380
315,96396
292,96431
263,96449
257,96465
252,96480
256,96494
259,96512
270,96528
285,96542
300,96557
310,96573
319,96589
323,96603
322,96617
317,96633
313,96650
307,96664
301,96678
293,96695
284,96711
283,96726
284,96739
289,96756
288,96773
286,96787
286,96800
290,96818
287,96833
284,96849
324,96871
366,96886
338,96904
323,96920
316,96934
309,96950
306,96966
299,96982
293,96995
290,97010
292,97027
302,97042
311,97056
316,97076
316,97092
312,97106
303,97121
293,97138
280,97154
272,97168
267,97182
262,97200
261,97215
268,97229
277,97244
289,97260
302,97276
308,97291
305,97305
303,97321
302,97338
303,97352
296,97367
315,97383
369,97399
347,97414
317,97428
300,97444
286,97461
276,97475
276,97489
280,97506
288,97522
293,97537
295,97551
302,97567
308,97584
314,97598
319,97612
328,97629
334,97645
331,97659
327,97673
318,97690
310,97707
306,97720
304,97734
308,97752
313,97767
316,97784
317,97800
311,97816
296,97831
282,97846
269,97860
257,97878
252,97892
293,97906
327,97922
304,97939
283,97953
282,97968
285,97983
287,97999
292,98015
295,98029
301,98044
307,98061
315,98076
314,98092
313,98128
311,98146
306,98162
297,98177
290,98192
288,98209
291,98225
292,98239
293,98254
296,98272
302,98287
304,98300
314,98317
320,98333
319,98349
316,98363
309,98378
302,98395
292,98410
327,98424
361,98440
344,98456
315,98471
308,98486
301,98501
293,98518
280,98536
270,98551
265,98567
261,98582
266,98597
270,98613
273,98628
272,98643
280,98659
289,98674
302,98690
311,98706
316,98729
319,98744
319,98760
319,98778
317,98793
310,98807
304,98823
296,98839
285,98854
281,98869
276,98884
273,98902
267,98916
269,98930
314,98946
362,98963
338,98978
315,98992
303,99008
300,99024
304,99040
307,99054
307,99069
305,99086
309,99101
309,99116
309,99131
310,99148
315,99164
318,99178
323,99193
320,99210
312,99225
301,99239
288,99254
276,99270
269,99286
265,99300
265,99315
265,99333
269,99348
275,99361
279,99378
284,99394
293,99409
298,99424
298,99439
298,99456
353,99471
381,99485
353,99501
320,99518
298,99532
284,99547
276,99563
274,99579
274,99595
272,99608
278,99624
283,99641
296,99656
305,99671
308,99686
311,99702
313,99718
314,99732
317,99747
320,99765
318,99779
314,99795
311,99832
306,99850
306,99865
313,99879
313,99895
309,99912
304,99929
291,99943
283,99958
270,99975
309,99990
336,100009
295,100026
273,100041
260,100057
258,100074
263,100090
275,100106
286,100122
297,100137
304,100154
312,100169
320,100185
325,100201
325,100216
320,100233
308,100248
300,100264
295,100280
291,100296
287,100312
287,100328
290,100343
299,100360
306,100375
308,100390
305,100407
302,100422
300,100438
303,100454
301,100469
301,100486
347,100501
380,100517
352,100533
321,100548
302,100564
298,100580
298,100595
297,100613
296,100637
289,100654
287,100670
282,100688
278,100707
276,100722
277,100738
278,100753
275,100770
281,100786
290,100800
299,100816
304,100833
308,100849
312,100864
320,100879
325,100896
322,100912
308,100926
293,100942
286,100960
279,100975
270,100989
277,101006
335,101022
346,101039
326,101053
308,101068
299,101086
289,101102
288,101116
290,101132
303,101149
311,101165
317,101180
320,101195
323,101213
324,101228
323,101242
326,101259
324,101275
322,101292
318,101306
309,101322
300,101339
288,101355
276,101371
267,101389
263,101405
264,101420
262,101435
261,101451
264,101469
272,101483
280,101497
282,101515
316,101531
372,101548
355,101583
310,101602
289,101619
278,101634
275,101648
276,101666
277,101684
281,101698
286,101712
299,101730
306,101746
311,101762
311,101776
307,101793
305,101810
307,101824
311,101839
315,101857
320,101873
320,101888
320,101902
319,101919
315,101937
312,101951
307,101965
307,101983
303,101999
294,102014
279,102029
311,102046
351,102063
306,102080
279,102095
260,102113
248,102128
248,102142
250,102158
263,102175
276,102191
289,102206
298,102221
308,102239
314,102254
322,102268
324,102285
321,102301
307,102318
295,102332
288,102348
288,102365
289,102380
290,102395
288,102411
295,102428
304,102444
308,102458
304,102474
301,102491
295,102508
296,102532
320,102548
387,102565
379,102582
347,102596
328,102612
306,102630
289,102645
286,102661
286,102676
294,102693
300,102709
300,102723
299,102739
294,102759
293,102774
288,102791
280,102806
273,102822
261,102838
265,102854
270,102870
277,102885
290,102901
300,102917
311,102933
319,102948
322,102964
319,102980
310,102995
301,103012
291,103027
277,103044
304,103059
355,103074
338,103091
310,103106
293,103122
288,103138
287,103153
286,103170
292,103185
294,103200
298,103217
306,103232
312,103248
326,103264
333,103279
335,103297
330,103333
304,103351
304,103367
302,103383
302,103398
300,103415
299,103432
297,103447
296,103465
289,103481
273,103498
267,103514
259,103529
252,103544
247,103562
301,103577
334,103591
317,103608
303,103625
302,103641
301,103655
300,103670
299,103688
300,103703
298,103718
296,103734
294,103751
292,103767
296,103782
302,103797
306,103815
303,103830
295,103844
293,103861
299,103878
302,103894
300,103908
299,103924
299,103941
306,103957
315,103971
321,103988
317,104004
311,104020
306,104035
295,104050
291,104068
346,104083
363,104098
335,104114
308,104131
297,104150
289,104164
282,104181
272,104198
268,104212
268,104227
267,104245
268,104261
269,104275
271,104290
280,104307
292,104325
302,104339
309,104353
315,104371
318,104387
322,104403
324,104427
314,104445
305,104463
296,104477
290,104492
285,104510
280,104526
279,104542
270,104556
279,104573
348,104590
351,104604
327,104619
311,104636
297,104652
293,104668
296,104682
301,104699
310,104716
315,104730
319,104744
319,104762
324,104779
325,104794
325,104808
323,104828
315,104845
306,104859
301,104876
293,104892
285,104907
277,104923
273,104938
273,104955
273,104971
270,104985
267,105001
265,105018
270,105033
278,105050
281,105086
372,105104
347,105120
328,105135
316,105151
301,105168
288,105185
283,105199
283,105216
289,105232
288,105247
293,105263
294,105278
299,105295
306,105311
306,105325
309,105341
306,105358
303,105374
303,105389
305,105404
317,105421
323,105437
325,105451
326,105467
321,105484
316,105499
306,105515
299,105534
293,105549
284,105566
308,105582
360,105598
337,105614
306,105629
285,105646
265,105661
257,105676
251,105693
249,105708
249,105723
259,105740
273,105755
285,105771
301,105787
314,105802
320,105818
324,105834
325,105849
316,105865
308,105881
298,105896
286,105912
287,105928
286,105944
292,105959
299,105975
295,105991
291,106006
288,106022
287,106038
283,106053
279,106070
329,106085
374,106100
355,106117
335,106132
323,106147
312,106164
309,106179
305,106194
300,106214
297,106228
297,106244
293,106261
305,106276
309,106292
311,106318
304,106336
297,106350
288,106364
275,106383
267,106400
260,106415
263,106429
267,106446
279,106463
293,106478
303,106492
305,106510
305,106526
306,106541
302,106555
298,106572
350,106589
363,106603
332,106618
305,106635
288,106652
278,106667
278,106681
275,106697
278,106715
283,106729
291,106743
296,106761
300,106777
308,106793
312,106828
323,106847
327,106863
327,106878
326,106893
321,106914
314,106931
313,106945
314,106960
316,106978
314,106993
308,107008
295,107024
289,107040
276,107056
274,107071
315,107086
333,107104
297,107119
270,107133
259,107149
256,107166
260,107182
274,107196
285,107212
297,107229
309,107245
324,107259
332,107275
336,107292
330,107308
318,107322
304,107338
291,107355
286,107370
282,107385
285,107401
286,107418
290,107433
298,107448
305,107463
311,107481
306,107496
299,107510
295,107527
291,107543
291,107558
320,107574
381,107593
362,107609
335,107624
320,107640
307,107656
301,107671
297,107686
297,107703
293,107718
296,107735
290,107750
289,107765
286,107781
279,107797
276,107812
273,107829
272,107844
267,107859
269,107875
277,107891
291,107907
305,107922
313,107938
317,107954
321,107969
323,107985
315,108001
304,108016
291,108033
282,108048
276,108063
311,108080
359,108095
337,108110
308,108127
295,108142
287,108157
287,108175
288,108200
295,108217
300,108231
308,108248
318,108265
324,108284
325,108299
325,108316
322,108334
317,108348
312,108362
308,108380
307,108396
304,108410
298,108425
290,108442
287,108459
284,108474
284,108488
280,108506
273,108522
267,108537
260,108573
312,108592
356,108608
340,108623
329,108638
323,108655
318,108673
311,108687
304,108702
298,108720
288,108736
290,108750
293,108765
297,108782
302,108798
303,108813
307,108828
308,108845
304,108862
298,108876
295,108891
295,108908
300,108924
307,108940
313,108954
320,108975
324,108990
321,109005
315,109021
308,109038
300,109053
289,109068
304,109084
355,109102
333,109117
297,109131
279,109148
266,109164
261,109179
260,109195
257,109210
254,109228
253,109243
260,109257
274,109274
291,109290
307,109306
320,109321
324,109336
322,109353
314,109369
304,109383
294,109400
285,109417
281,109432
283,109447
290,109463
296,109479
295,109495
297,109510
295,109526
295,109543
288,109558
281,109573
317,109589
367,109605
348,109622
325,109636
310,109656
303,109671
300,109687
300,109703
301,109718
303,109734
307,109750
310,109766
310,109782
306,109797
302,109813
299,109829
298,109844
294,109860
290,109876
284,109892
278,109907
275,109923
277,109939
285,109955
298,109970
310,109986
316,110002
316,110018
312,110033
306,110051
288,110076
333,110093
345,110107
315,110124
296,110141
286,110157
282,110172
279,110188
280,110205
285,110221
290,110235
298,110251
303,110268
307,110284
312,110320
321,110337
321,110354
317,110372
314,110387
312,110405
309,110423
310,110437
315,110451
319,110469
317,110485
304,110499
290,110515
280,110531
272,110548
261,110563
267,110577
310,110595
319,110611
288,110626
275,110641
273,110658
280,110674
292,110689
298,110703
302,110721
302,110738
298,110752
296,110767
293,110784
292,110800
291,110815
295,110829
295,110846
296,110864
294,110878
291,110893
294,110910
295,110926
300,110941
302,110956
305,110973
309,110990
309,111004
308,111019
304,111040
304,111055
299,111070
327,111086
374,111104
352,111120
328,111134
318,111150
312,111167
305,111182
296,111197
288,111213
281,111229
275,111246
271,111260
271,111276
266,111293
267,111308
265,111323
270,111339
276,111355
291,111371
301,111386
307,111401
308,111419
308,111434
309,111449
311,111465
312,111481
308,111497
303,111511
302,111527
300,111544
295,111560
282,111575
308,111590
359,111607
346,111623
321,111637
305,111653
295,111670
294,111685
299,111699
307,111719
312,111735
315,111751
320,111766
322,111782
322,111798
322,111813
322,111830
320,111845
317,111861
308,111877
296,111892
287,111907
276,111925
272,111952
270,111967
271,111982
266,112001
266,112017
271,112033
285,112068
299,112087
351,112104
358,112118
323,112133
297,112151
275,112168
269,112183
270,112197
274,112215
277,112232
282,112246
290,112261
295,112278
303,112294
309,112309
313,112323
317,112340
318,112358
323,112372
327,112387
332,112404
331,112420
329,112438
327,112453
328,112471
332,112486
331,112500
318,112517
306,112533
289,112548
276,112564
261,112579
295,112596
337,112612
303,112626
273,112643
255,112659
252,112675
262,112690
274,112705
282,112722
288,112738
291,112752
295,112769
298,112786
300,112801
296,112816
299,112832
303,112848
303,112865
300,112879
297,112894
300,112912
301,112927
308,112942
311,112958
314,112975
317,112991
314,113005
317,113021
319,113038
319,113053
311,113069
323,113084
378,113103
356,113119
326,113135
310,113150
298,113167
283,113182
277,113198
271,113214
273,113229
270,113245
272,113261
273,113276
273,113293
272,113308
277,113325
283,113340
292,113356
297,113372
296,113387
294,113403
300,113419
306,113434
304,113451
305,113466
300,113482
299,113498
297,113513
295,113528
292,113545
284,113560
301,113576
364,113592
361,113607
328,113623
309,113639
300,113654
297,113671
300,113686
306,113701
312,113718
312,113733
313,113748
310,113766
316,113807
329,113837
315,113852
300,113866
293,113884
288,113902
282,113918
275,113933
274,113949
274,113966
276,113982
278,113996
285,114012
290,114029
290,114044
286,114060
328,114075
363,114093
331,114108
303,114122
292,114139
291,114156
293,114171
296,114186
295,114202
298,114220
306,114235
313,114249
317,114266
318,114282
320,114297
323,114313
324,114328
325,114345
325,114361
325,114375
324,114392
325,114408
325,114424
326,114439
325,114454
319,114471
303,114487
286,114505
274,114522
260,114537
272,114553
321,114569
316,114584
288,114600
272,114616
266,114632
269,114648
279,114664
290,114679
299,114696
304,114711
306,114726
307,114743
310,114758
313,114775
312,114790
311,114805
312,114822
315,114837
314,114853
310,114869
306,114885
302,114900
302,114916
299,114932
294,114948
289,114964
286,114979
284,114995
279,115011
275,115026
313,115043
356,115058
341,115075
321,115090
309,115106
300,115122
294,115137
292,115153
295,115172
296,115188
298,115205
299,115219
301,115234
302,115252
303,115267
304,115281
303,115298
303,115314
307,115331
310,115345
311,115360
309,115378
306,115393
306,115407
305,115424
299,115441
290,115457
284,115471
281,115487
274,115504
286,115521
346,115556
302,115573
281,115591
271,115606
269,115620
269,115638
273,115655
279,115671
287,115687
290,115715
296,115730
300,115744
302,115762
302,115779
300,115794
297,115810
295,115825
294,115843
293,115858
293,115872
298,115902
301,115917
297,115933
291,115952
288,115970
288,115986
301,116001
360,116020
369,116037
337,116052
318,116068
304,116086
291,116104
283,116120
281,116135
280,116154
282,116171
289,116187
297,116202
302,116220
304,116238
300,116254
296,116270
291,116288
286,116305
285,116321
286,116336
291,116355
303,116373
305,116388
300,116404
295,116422
290,116440
284,116455
278,116470
316,116489
366,116507
333,116523
309,116538
293,116556
284,116574
279,116589
278,116604
282,116627
288,116643
296,116660
303,116677
316,116696
327,116712
333,116728
334,116745
329,116763
320,116780
311,116795
308,116811
303,116830
300,116846
301,116861
301,116879
299,116896
293,116913
285,116928
271,116945
309,116963
352,116980
322,116996
295,117012
279,117030
273,117047
274,117062
277,117080
281,117097
284,117113
292,117129
299,117146
303,117164
308,117180
312,117196
310,117213
305,117231
300,117248
297,117263
297,117279
298,117298
303,117314
306,117335
308,117371
308,117390
312,117406
316,117424
361,117440
379,117457
345,117475
317,117491
295,117508
278,117525
267,117541
264,117558
268,117574
276,117592
281,117608
283,117625
286,117642
287,117660
290,117689
290,117704
294,117722
300,117740
310,117757
314,117773
313,117789
312,117808
307,117824
294,117839
289,117856
287,117874
278,117891
296,117906
345,117923
329,117941
298,117957
281,117974
272,117990
268,118007
267,118025
270,118040
276,118056
287,118075
300,118094
306,118111
308,118127
308,118145
308,118161
305,118177
302,118195
301,118211
303,118227
312,118245
319,118261
320,118278
312,118294
298,118311
291,118328
284,118345
272,118362
286,118378
350,118395
340,118412
310,118428
293,118446
285,118462
282,118478
281,118495
282,118512
288,118529
293,118546
296,118562
298,118579
297,118595
296,118612
300,118629
302,118645
300,118663
298,118679
299,118695
301,118713
310,118729
318,118746
321,118763
320,118779
316,118796
306,118815
290,118834
312,118850
363,118865
341,118882
307,118900
287,118917
281,118932
280,118948
282,118967
282,118983
283,118999
284,119016
287,119033
289,119050
289,119065
290,119083
294,119100
296,119117
297,119133
297,119149
298,119168
301,119185
308,119222
305,119239
301,119258
297,119274
288,119289
283,119307
340,119325
351,119343
320,119358
301,119374
290,119393
284,119409
284,119425
287,119441
292,119459
304,119476
314,119491
322,119508
328,119526
330,119545
326,119561
318,119579
306,119598
300,119614
295,119642
298,119659
303,119677
304,119695
295,119710
288,119728
282,119745
272,119762
299,119778
351,119794
335,119813
304,119829
288,119844
280,119862
277,119879
279,119897
284,119912
289,119928
294,119947
299,119963
300,119979
304,119996
306,120013
304,120031
298,120046
292,120062
286,120081
283,120097
284,120113
287,120130
288,120147
287,120164
284,120180
287,120197
298,120215
299,120231
338,120247
376,120264
339,120286
303,120301
282,120316
268,120335
261,120352
258,120368
263,120383
272,120401
279,120420
281,120435
283,120451
286,120469
293,120486
295,120502
295,120517
296,120536
303,120554
313,120569
320,120585
323,120603
325,120621
314,120636
306,120652
298,120670
289,120688
301,120704
358,120719
360,120737
318,120755
287,120770
273,120786
264,120804
259,120822
257,120838
264,120853
269,120871
283,120889
296,120904
307,120920
313,120938
313,120956
310,120972
309,120987
303,121009
296,121025
294,121042
296,121080
300,121099
291,121116
285,121132
281,121149
295,121167
369,121185
356,121200
326,121218
311,121235
304,121251
307,121268
312,121284
314,121303
315,121319
309,121334
306,121352
312,121369
320,121385
323,121402
319,121418
306,121437
294,121453
289,121468
288,121486
292,121503
293,121520
290,121535
284,121552
284,121571
291,121588
297,121616
346,121632
383,121651
351,121669
318,121684
294,121700
277,121718
266,121737
268,121754
276,121772
283,121789
288,121806
290,121822
296,121838
299,121857
304,121873
303,121888
305,121906
308,121923
316,121939
321,121955
322,121972
327,121990
326,122007
321,122022
316,122039
309,122057
299,122074
334,122089
363,122106
327,122124
288,122141
270,122157
264,122173
259,122191
260,122208
263,122223
264,122241
268,122258
278,122275
291,122291
305,122307
316,122326
323,122342
321,122357
316,122375
311,122392
308,122409
307,122425
308,122442
306,122460
299,122479
293,122497
285,122514
281,122530
321,122547
354,122565
326,122582
304,122598
291,122614
290,122632
295,122648
302,122665
309,122682
312,122698
312,122715
307,122732
301,122748
298,122765
304,122782
307,122799
303,122815
294,122832
289,122849
283,122865
285,122882
287,122900
286,122938
266,122955
261,122973
256,122989
303,123005
357,123024
338,123040
320,123058
308,123074
299,123090
287,123107
279,123124
274,123141
270,123157
269,123174
271,123191
274,123207
280,123227
285,123244
287,123261
288,123277
288,123293
292,123311
297,123328
302,123343
309,123360
315,123378
316,123395
316,123410
314,123426
304,123445
336,123461
380,123476
353,123494
324,123511
308,123529
300,123545
292,123575
281,123594
274,123612
267,123627
265,123644
264,123663
269,123679
271,123695
276,123712
281,123730
292,123747
304,123762
315,123779
327,123797
332,123813
326,123829
314,123846
303,123864
288,123881
270,123896
287,123913
352,123931
332,123950
297,123966
286,123983
281,124002
281,124017
282,124033
283,124051
288,124068
294,124084
304,124099
315,124118
329,124135
345,124151
352,124167
350,124185
336,124203
317,124218
304,124233
303,124252
304,124270
305,124285
299,124301
291,124319
278,124337
259,124352
283,124367
335,124386
316,124404
289,124420
282,124435
282,124453
291,124471
303,124486
310,124502
310,124520
308,124537
303,124554
295,124569
289,124588
291,124605
298,124620
300,124636
297,124654
298,124675
303,124690
313,124707
315,124725
314,124741
306,124759
301,124796
314,124816
380,124832
383,124849
353,124865
327,124884
299,124902
284,124917
281,124934
284,124952
285,124968
280,124985
280,125001
276,125020
275,125036
274,125051
274,125069
273,125086
271,125104
276,125119
293,125135
313,125154
327,125170
330,125187
322,125203
313,125221
301,125238
280,125253
286,125271
340,125288
335,125305
309,125321
291,125337
278,125356
275,125372
276,125387
281,125405
285,125425
288,125442
298,125459
310,125476
321,125495
332,125524
334,125543
328,125560
325,125577
323,125593
326,125612
331,125628
328,125645
316,125662
299,125679
281,125696
261,125713
274,125729
327,125747
314,125763
279,125780
261,125797
258,125814
268,125831
282,125847
293,125864
303,125881
303,125898
300,125915
293,125931
292,125948
289,125965
290,125982
294,125999
293,126016
289,126032
289,126050
300,126066
308,126084
312,126100
305,126117
294,126134
288,126154
285,126170
324,126187
388,126205
369,126222
344,126237
323,126255
300,126272
290,126289
293,126305
298,126322
300,126340
296,126357
287,126372
279,126390
274,126407
272,126425
272,126440
270,126456
269,126475
274,126491
284,126508
301,126524
314,126542
319,126559
314,126574
307,126592
294,126610
276,126627
316,126664
313,126683
288,126701
273,126718
269,126734
274,126751
281,126771
287,126787
288,126802
288,126820
295,126838
307,126855
322,126870
333,126887
342,126909
340,126924
333,126941
330,126959
328,126977
327,126992
322,127007
314,127027
302,127044
285,127059
261,127075
273,127094
330,127112
299,127127
271,127142
261,127161
264,127179
279,127195
297,127210
309,127228
314,127247
309,127262
300,127278
292,127296
285,127313
288,127330
295,127345
299,127364
295,127381
298,127397
305,127413
310,127431
317,127449
311,127466
300,127495
288,127514
287,127533
352,127548
385,127563
368,127583
344,127601
324,127617
308,127632
295,127654
293,127671
294,127686
297,127704
298,127721
290,127738
283,127754
278,127770
276,127789
271,127805
266,127821
266,127838
277,127856
295,127873
311,127888
318,127905
314,127924
299,127940
287,127955
271,127973
279,127990
343,128007
329,128023
300,128039
284,128058
283,128074
288,128090
292,128107
290,128125
292,128142
295,128157
300,128175
312,128192
325,128209
339,128225
349,128241
350,128260
339,128276
327,128292
317,128309
317,128327
325,128344
323,128363
304,128380
283,128397
262,128414
249,128432
288,128449
310,128465
275,128483
260,128501
261,128539
285,128557
287,128574
288,128590
288,128608
287,128625
288,128643
290,128659
297,128676
297,128693
296,128709
296,128727
302,128743
310,128760
316,128777
315,128794
311,128811
304,128827
302,128844
305,128861
306,128877
341,128894
398,128911
380,128928
347,128945
320,128961
301,128978
292,128995
295,129011
296,129029
292,129045
280,129062
269,129079
264,129095
263,129117
264,129133
260,129148
260,129165
271,129183
287,129200
305,129215
315,129232
315,129250
304,129267
290,129283
276,129299
269,129317
271,129334
329,129349
356,129367
321,129384
296,129400
290,129418
293,129449
285,129468
285,129483
289,129499
299,129518
315,129537
333,129552
348,129568
357,129587
355,129604
339,129619
322,129635
312,129653
314,129672
320,129687
315,129702
300,129721
281,129738
264,129754
250,129770
251,129787
311,129806
303,129821
276,129837
275,129859
286,129875
296,129891
299,129907
293,129926
288,129942
282,129957
280,129975
281,129993
288,130010
294,130025
297,130042
295,130060
302,130077
309,130093
314,130109
316,130127
317,130144
311,130159
310,130177
315,130194
320,130210
321,130227
370,130243
396,130262
354,130278
319,130293
303,130311
298,130328
298,130344
298,130362
296,130400
279,130418
274,130436
274,130451
274,130468
268,130487
266,130504
272,130520
285,130537
306,130554
320,130572
325,130591
313,130608
297,130624
283,130640
265,130658
267,130674
327,130692
338,130708
305,130724
290,130742
288,130758
292,130775
296,130792
296,130808
297,130826
297,130842
301,130859
313,130876
325,130892
337,130909
344,130926
344,130942
336,130959
328,130976
324,130993
326,131009
325,131026
321,131043
301,131060
286,131077
269,131093
248,131110
266,131127
308,131143
283,131161
260,131177
256,131193
264,131211
275,131227
286,131244
293,131261
296,131277
298,131294
294,131315
288,131332
288,131349
295,131381
298,131399
298,131415
304,131430
313,131449
316,131468
319,131483
310,131499
302,131517
298,131534
295,131550
310,131566
367,131584
375,131602
345,131617
326,131633
316,131651
310,131668
311,131684
307,131699
301,131718
291,131736
281,131751
272,131767
265,131785
262,131803
260,131818
255,131833
253,131852
261,131869
276,131886
292,131901
307,131919
314,131937
311,131952
307,131968
300,131986
282,132003
311,132019
353,132035
320,132057
295,132073
282,132088
279,132106
284,132123
288,132140
292,132156
293,132172
295,132191
299,132207
306,132224
321,132261
340,132280
340,132297
336,132313
332,132330
333,132348
335,132366
329,132381
314,132399
298,132416
276,132432
258,132449
290,132465
323,132484
282,132500
257,132515
241,132533
238,132550
247,132568
258,132583
269,132599
279,132618
292,132634
303,132649
307,132667
307,132684
305,132702
308,132717
310,132733
309,132752
307,132768
310,132788
319,132805
318,132822
311,132838
302,132855
292,132872
285,132889
332,132905
379,132922
359,132939
340,132956
330,132972
320,132989
307,133006
301,133023
302,133040
306,133056
306,133073
304,133090
301,133106
295,133124
287,133140
277,133156
268,133174
266,133190
263,133207
266,133224
277,133240
291,133258
301,133274
301,133293
295,133323
304,133341
359,133356
342,133373
307,133392
292,133409
288,133425
286,133442
281,133459
281,133477
288,133492
292,133509
301,133530
304,133545
308,133562
314,133580
323,133598
331,133613
337,133628
341,133647
344,133664
339,133680
327,133695
317,133713
306,133732
297,133747
284,133763
288,133781
336,133798
319,133814
287,133829
270,133848
260,133865
251,133881
250,133897
252,133914
263,133933
283,133948
302,133963
311,133982
319,133999
322,134014
319,134030
312,134048
298,134066
288,134083
294,134119
294,134138
282,134157
282,134172
281,134188
278,134207
305,134225
345,134241
326,134256
303,134279
300,134295
302,134310
305,134329
312,134347
316,134364
316,134379
318,134396
317,134415
320,134431
319,134447
317,134464
305,134481
292,134498
282,134514
274,134531
276,134549
271,134565
267,134581
260,134598
262,134616
275,134632
282,134648
307,134665
360,134683
347,134700
316,134715
292,134732
270,134750
263,134766
272,134782
278,134799
281,134817
285,134834
293,134849
303,134865
311,134884
314,134900
311,134916
313,134933
317,134950
329,134968
339,134987
347,135004
347,135020
336,135036
325,135054
315,135070
302,135088
306,135104
358,135120
353,135138
316,135154
293,135171
274,135188
261,135204
252,135223
246,135256
247,135271
253,135286
265,135306
283,135323
299,135340
306,135355
308,135373
309,135391
306,135406
304,135421
305,135440
314,135457
312,135473
307,135489
300,135506
292,135525
292,135540
346,135556
372,135574
336,135591
310,135607
301,135622
296,135641
303,135659
306,135674
308,135690
309,135708
305,135728
303,135744
309,135760
318,135779
323,135795
321,135811
315,135827
310,135845
300,135862
291,135877
282,135895
274,135912
263,135929
252,135946
247,135984
322,136003
344,136019
316,136036
301,136052
296,136072
292,136088
289,136104
283,136121
289,136139
299,136156
305,136171
304,136188
306,136206
314,136222
319,136239
319,136255
319,136273
317,136290
319,136305
326,136323
333,136340
334,136357
328,136373
323,136389
310,136408
307,136424
362,136439
368,136457
334,136477
316,136494
293,136511
277,136527
263,136544
254,136561
250,136578
251,136594
250,136611
248,136628
258,136645
272,136662
288,136678
302,136695
306,136712
309,136728
315,136745
321,136762
318,136779
303,136796
291,136812
290,136829
281,136846
281,136862
330,136880
336,136896
312,136913
300,136930
290,136946
289,136963
290,136980
298,136996
309,137014
321,137030
330,137047
335,137064
338,137080
333,137097
323,137114
321,137131
321,137149
319,137182
310,137200
300,137218
282,137236
261,137253
251,137269
241,137286
236,137304
289,137320
309,137335
292,137353
280,137371
274,137388
277,137403
280,137420
285,137438
285,137454
287,137469
295,137487
304,137504
308,137522
306,137537
307,137553
310,137572
311,137588
313,137604
316,137621
319,137638
326,137655
326,137671
325,137688
322,137706
318,137722
309,137738
338,137754
377,137773
343,137789
322,137806
305,137844
277,137864
270,137881
264,137896
259,137913
256,137932
251,137952
251,137969
254,137986
263,138002
274,138019
290,138036
302,138052
312,138070
317,138086
312,138103
294,138120
282,138137
280,138153
279,138171
290,138187
349,138205
352,138221
324,138237
310,138255
300,138271
289,138289
284,138305
286,138321
294,138339
306,138355
316,138373
327,138389
332,138406
338,138423
335,138440
330,138457
329,138473
329,138490
327,138507
323,138524
317,138541
300,138558
282,138574
268,138591
254,138608
250,138625
297,138642
308,138658
275,138678
271,138696
272,138713
276,138728
281,138745
288,138763
296,138780
300,138796
299,138812
304,138830
316,138847
322,138862
316,138880
313,138898
313,138914
317,138930
320,138947
317,138964
316,138982
306,138997
299,139014
299,139032
295,139048
317,139066
375,139099
339,139116
314,139131
300,139149
301,139168
302,139185
299,139200
297,139217
285,139235
280,139252
274,139268
268,139284
269,139302
264,139319
258,139334
262,139352
272,139370
291,139386
306,139406
308,139535
312,139550
295,139566
281,139583
283,139601
289,139618
295,139633
297,139651
295,139668
300,139685
311,139701
320,139717
327,139736
334,139754
343,139790
344,139808
330,139827
312,139843
294,139858
280,139876
266,139894
260,139912
254,139927
275,139943
330,139962
311,139978
284,139994
268,140011
265,140028
278,140046
296,140061
311,140078
317,140096
311,140112
306,140128
295,140145
281,140163
276,140179
281,140195
289,140212
294,140230
294,140247
300,140264
312,140283
315,140302
309,140317
298,140333
286,140352
275,140369
316,140385
365,140401
347,140419
329,140437
322,140452
320,140468
314,140486
303,140504
295,140520
294,140535
298,140554
302,140571
302,140587
298,140602
289,140620
279,140638
267,140654
263,140669
259,140688
260,140705
274,140721
285,140736
294,140754
297,140772
297,140787
288,140804
313,140822
369,140839
331,140855
299,140870
291,140889
287,140906
283,140921
280,140938
285,140955
294,140974
299,140991
304,141008
305,141026
309,141043
312,141059
321,141075
329,141092
333,141110
336,141125
338,141142
333,141160
323,141176
312,141192
307,141209
304,141227
290,141243
322,141259
362,141276
330,141294
283,141310
261,141326
247,141343
238,141361
237,141377
241,141392
257,141410
277,141427
297,141445
314,141460
328,141476
333,141495
332,141511
318,141527
304,141544
300,141561
307,141578
311,141595
306,141633
298,141651
294,141670
296,141689
350,141705
340,141727
303,141746
294,141761
292,141776
298,141795
309,141812
320,141828
327,141843
329,141861
323,141879
318,141894
315,141911
309,141928
302,141946
295,141962
288,141977
281,141996
275,142013
275,142028
269,142044
259,142062
253,142080
256,142095
259,142110
287,142129
349,142147
338,142162
318,142178
308,142196
296,142214
283,142229
280,142244
286,142263
296,142280
296,142297
297,142312
301,142330
308,142348
314,142363
312,142379
309,142397
302,142414
301,142430
310,142449
320,142468
333,142484
338,142499
339,142517
334,142534
310,142551
315,142566
355,142583
342,142601
304,142617
284,142633
275,142650
267,142668
256,142685
249,142700
248,142716
251,142735
252,142751
258,142767
271,142784
285,142801
298,142818
308,142833
316,142851
321,142868
325,142885
319,142901
309,142917
300,142936
296,142952
291,142967
279,142984
281,143002
346,143019
353,143034
324,143051
302,143069
286,143085
279,143100
278,143118
284,143136
298,143153
315,143172
330,143190
339,143206
340,143222
331,143240
319,143256
312,143273
309,143290
308,143306
313,143324
313,143340
300,143356
279,143374
264,143390
253,143407
240,143424
241,143441
306,143479
290,143497
294,143514
295,143532
298,143548
296,143565
296,143583
288,143599
287,143617
297,143633
310,143649
315,143667
310,143683
310,143700
313,143717
315,143733
317,143751
314,143769
314,143789
305,143805
302,143820
304,143839
309,143857
323,143873
379,143888
389,143909
340,143926
310,143942
289,143959
282,143977
290,143993
298,144009
299,144026
290,144044
281,144060
274,144076
274,144093
270,144111
266,144128
264,144143
272,144160
289,144178
310,144195
323,144210
328,144227
317,144245
301,144262
285,144277
269,144294
284,144313
348,144329
335,144345
307,144362
293,144379
292,144396
293,144412
293,144429
291,144447
293,144463
297,144479
303,144496
313,144514
327,144531
339,144546
346,144563
347,144581
339,144598
327,144613
313,144633
312,144651
315,144667
317,144685
313,144701
298,144717
272,144734
279,144751
308,144768
277,144785
245,144801
234,144819
237,144835
251,144852
273,144869
290,144885
306,144903
312,144919
314,144935
308,144953
296,144969
291,144986
289,145003
289,145019
291,145037
295,145053
308,145070
320,145087
317,145103
304,145121
292,145137
285,145154
276,145171
309,145187
355,145204
345,145221
334,145238
330,145254
324,145271
315,145289
300,145327
294,145344
305,145361
316,145382
315,145397
306,145416
287,145434
270,145451
258,145466
253,145483
256,145501
263,145517
274,145532
281,145550
286,145568
290,145585
290,145600
301,145616
357,145635
348,145651
311,145667
295,145684
286,145701
282,145719
281,145734
284,145751
289,145769
293,145785
299,145801
301,145818
301,145836
305,145852
309,145869
315,145890
333,145906
344,145922
352,145940
350,145957
334,145974
310,145989
296,146007
289,146025
287,146041
313,146057
365,146073
343,146094
290,146111
261,146128
245,146146
234,146162
229,146179
235,146197
256,146213
277,146230
291,146247
305,146264
314,146280
315,146297
308,146314
297,146330
294,146347
304,146364
310,146380
309,146398
305,146414
302,146430
300,146448
295,146464
282,146481
318,146498
360,146514
333,146531
309,146548
304,146565
309,146581
318,146598
327,146615
334,146632
334,146649
328,146665
323,146681
320,146699
319,146715
313,146732
307,146749
306,146765
296,146782
286,146799
278,146818
273,146835
263,146852
252,146870
254,146885
257,146902
267,146920
318,146936
352,146952
331,146969
313,146987
298,147003
282,147019
277,147036
282,147054
287,147070
290,147086
294,147102
302,147121
312,147138
312,147175
307,147192
300,147211
294,147228
304,147244
320,147261
334,147279
340,147296
338,147312
329,147329
307,147347
305,147363
339,147379
327,147395
309,147414
298,147430
289,147445
281,147463
279,147480
275,147497
271,147513
267,147529
258,147548
259,147566
269,147582
280,147600
293,147618
300,147634
304,147649
307,147667
313,147685
308,147700
299,147716
291,147734
289,147751
283,147767
271,147783
290,147801
350,147819
335,147834
310,147850
295,147868
285,147886
279,147901
278,147916
283,147935
297,147952
315,147970
331,147989
343,148005
345,148025
331,148041
316,148058
305,148074
304,148091
314,148109
322,148124
327,148141
316,148159
290,148175
271,148191
258,148208
241,148226
268,148242
308,148258
287,148279
270,148296
272,148312
275,148327
282,148345
287,148363
291,148378
293,148393
293,148412
300,148429
310,148446
311,148461
306,148480
299,148497
301,148512
305,148528
309,148546
311,148563
309,148579
304,148595
297,148613
300,148631
303,148646
305,148662
351,148680
392,148698
356,148713
326,148728
302,148747
291,148764
297,148780
300,148795
310,148813
305,148831
291,148846
277,148861
273,148880
263,148898
259,148914
255,148929
249,148947
260,148965
278,148981
300,149022
311,149042
307,149058
304,149074
288,149092
304,149110
366,149127
346,149143
320,149159
301,149178
293,149194
288,149210
292,149227
295,149244
296,149261
297,149277
300,149294
309,149312
322,149328
333,149344
341,149361
346,149379
343,149396
336,149411
324,149429
312,149446
307,149463
312,149479
314,149495
308,149514
281,149530
289,149545
318,149563
286,149580
252,149598
234,149613
231,149629
233,149648
250,149664
267,149680
281,149697
297,149715
309,149732
316,149751
314,149768
307,149784
303,149801
313,149818
314,149834
311,149852
308,149868
308,149884
308,149902
306,149918
301,149935
293,149952
289,149968
331,149986
348,150002
325,150020
314,150036
312,150054
315,150075
316,150090
312,150108
310,150127
312,150144
316,150159
321,150176
323,150194
317,150210
302,150226
284,150243
270,150261
261,150278
260,150293
256,150309
259,150328
257,150344
263,150360
269,150377
271,150394
299,150412
351,150427
340,150444
316,150464
294,150481
286,150498
288,150514
293,150532
291,150548
288,150564
292,150582
301,150598
304,150615
309,150632
311,150648
307,150666
306,150682
307,150699
319,150716
332,150732
346,150749
347,150766
335,150782
314,150800
295,150816
284,150835
316,150873
337,150890
311,150907
287,150925
266,150941
254,150959
246,150976
241,150993
242,151010
247,151027
259,151044
276,151060
293,151077
304,151094
309,151111
315,151128
314,151144
305,151161
299,151178
298,151195
301,151215
293,151231
285,151249
282,151266
293,151281
354,151299
357,151317
319,151333
297,151349
285,151366
286,151384
293,151401
308,151416
323,151433
334,151451
335,151468
328,151484
315,151500
307,151519
309,151535
314,151550
322,151568
322,151585
313,151603
299,151618
283,151635
270,151653
253,151670
242,151686
232,151702
233,151720
309,151737
322,151752
300,151770
294,151788
294,151804
291,151820
288,151837
283,151855
286,151871
294,151887
306,151904
306,151922
309,151941
314,151957
316,151975
316,151994
312,152009
309,152025
310,152043
312,152061
311,152077
313,152092
318,152111
322,152128
314,152145
339,152165
373,152184
327,152203
302,152218
300,152235
302,152253
303,152271
299,152287
290,152302
283,152321
277,152338
271,152354
270,152370
267,152388
268,152406
273,152421
279,152436
288,152455
297,152473
309,152488
314,152504
319,152522
309,152540
297,152555
290,152571
291,152589
345,152607
347,152623
317,152638
302,152660
295,152677
293,152694
291,152732
296,152751
306,152768
320,152784
334,152801
347,152820
350,152837
343,152853
331,152869
317,152888
308,152904
314,152921
320,152937
318,152955
301,152972
283,152987
269,153005
257,153023
302,153039
314,153055
283,153072
262,153091
257,153107
264,153122
277,153140
290,153158
301,153175
310,153190
312,153207
306,153225
299,153242
299,153257
304,153275
306,153292
304,153309
302,153325
305,153341
312,153360
313,153376
304,153392
292,153413
283,153430
273,153446
286,153463
347,153480
345,153497
326,153513
316,153531
306,153547
295,153565
282,153581
280,153598
289,153615
300,153631
303,153649
299,153665
291,153682
283,153699
276,153716
270,153733
268,153749
264,153766
273,153783
282,153800
291,153817
295,153834
297,153850
304,153867
301,153884
320,153901
365,153918
335,153934
298,153952
283,153968
277,153985
273,154002
272,154018
277,154036
286,154052
293,154070
298,154086
302,154102
304,154120
302,154140
300,154156
301,154172
310,154190
323,154207
336,154224
343,154246
332,154264
312,154281
294,154297
280,154314
281,154333
351,154349
351,154365
318,154382
294,154400
275,154417
265,154432
259,154449
255,154468
254,154484
260,154500
272,154517
289,154534
307,154553
317,154590
322,154607
320,154626
314,154642
311,154658
314,154676
316,154694
312,154712
306,154727
299,154743
297,154762
352,154778
365,154793
335,154811
311,154828
297,154846
290,154861
289,154882
295,154900
309,154915
323,154931
334,154950
340,154968
335,154984
325,154999
316,155018
312,155035
311,155051
304,155067
300,155085
294,155103
283,155118
268,155133
254,155152
242,155170
234,155186
266,155201
318,155219
310,155237
296,155252
295,155269
300,155287
300,155304
294,155320
288,155336
289,155354
296,155372
308,155387
312,155403
314,155421
313,155440
310,155455
306,155470
305,155489
305,155506
308,155523
310,155538
310,155556
305,155574
304,155589
300,155610
313,155627
361,155643
347,155660
321,155676
311,155695
308,155711
301,155726
292,155744
278,155762
272,155779
266,155794
261,155811
261,155829
261,155846
259,155862
257,155879
260,155896
277,155913
292,155929
304,155945
314,155964
318,155980
313,155997
310,156013
303,156032
286,156048
317,156063
366,156081
347,156099
310,156115
287,156131
275,156148
271,156166
271,156183
273,156198
278,156215
285,156233
291,156250
298,156265
304,156282
308,156301
310,156318
310,156344
314,156361
319,156378
323,156394
323,156413
308,156451
266,156469
253,156486
297,156504
330,156520
292,156537
260,156555
250,156572
252,156589
264,156606
278,156622
284,156640
284,156656
286,156673
286,156690
284,156706
286,156723
292,156740
302,156756
303,156774
303,156790
311,156808
319,156824
321,156841
313,156858
303,156875
295,156892
287,156909
302,156925
369,156942
371,156959
349,156976
337,156992
329,157009
314,157026
296,157043
292,157060
303,157079
317,157097
318,157114
308,157130
299,157147
290,157165
280,157181
273,157197
267,157214
269,157232
276,157249
286,157264
292,157282
292,157300
291,157317
286,157332
289,157349
339,157367
354,157383
326,157400
314,157416
305,157434
298,157451
299,157466
305,157484
310,157502
312,157518
313,157534
315,157551
316,157569
319,157586
321,157601
326,157618
334,157636
345,157652
351,157669
348,157685
331,157704
304,157720
297,157735
300,157753
297,157771
314,157788
341,157806
308,157825
275,157843
260,157859
249,157875
242,157893
237,157912
248,157927
264,157942
279,157961
294,157978
302,157993
307,158010
308,158027
302,158046
300,158061
304,158076
314,158095
315,158112
308,158128
303,158144
301,158161
298,158180
285,158195
306,158211
351,158229
330,158246
304,158264
297,158300
310,158319
317,158338
321,158353
316,158368
306,158388
303,158405
314,158423
324,158444
317,158462
303,158480
292,158495
287,158513
283,158531
277,158547
265,158567
254,158583
250,158601
251,158617
264,158633
330,158650
351,158667
324,158684
305,158701
287,158717
274,158734
271,158750
277,158768
285,158784
288,158801
290,158818
299,158834
306,158851
310,158868
308,158884
305,158902
302,158918
302,158935
309,158951
320,158968
331,158985
336,159002
337,159019
334,159035
320,159052
336,159069
376,159085
342,159102
304,159119
282,159136
275,159153
272,159169
268,159185
267,159203
265,159219
261,159237
259,159253
261,159272
275,159290
286,159306
293,159323
297,159339
300,159357
307,159374
309,159389
308,159406
306,159424
308,159440
302,159456
290,159473
298,159491
363,159507
358,159522
327,159540
309,159557
296,159575
287,159590
287,159606
288,159625
300,159641
315,159656
329,159674
343,159691
349,159708
346,159723
335,159740
322,159758
312,159774
312,159791
315,159807
316,159825
302,159842
285,159857
273,159874
266,159892
253,159908
283,159924
312,159941
290,159959
276,159975
272,159993
267,160011
271,160029
280,160045
286,160060
292,160077
299,160096
311,160112
322,160149
310,160167
308,160186
310,160201
311,160217
311,160236
308,160253
305,160269
302,160285
302,160303
301,160321
316,160336
367,160352
379,160369
352,160388
331,160403
315,160418
303,160437
289,160454
280,160471
276,160493
274,160512
273,160528
274,160543
275,160562
268,160580
258,160596
258,160612
265,160629
276,160647
288,160664
291,160679
291,160696
287,160714
287,160731
275,160750
295,160768
361,160784
345,160801
315,160819
298,160835
293,160851
294,160868
292,160885
290,160902
289,160919
291,160935
295,160952
305,160969
317,160986
327,161002
333,161019
333,161036
333,161053
326,161070
323,161086
330,161103
334,161120
334,161136
327,161154
307,161170
287,161187
328,161204
326,161221
281,161238
251,161254
234,161270
228,161288
231,161304
246,161321
263,161338
272,161355
279,161372
289,161388
302,161405
307,161422
305,161438
307,161458
314,161476
315,161492
314,161508
315,161525
314,161543
312,161559
307,161575
295,161592
284,161610
334,161627
354,161642
326,161658
312,161677
311,161693
315,161710
320,161726
321,161743
317,161761
312,161776
317,161793
326,161811
343,161827
347,161843
338,161860
318,161878
306,161895
297,161910
285,161927
273,161945
261,161964
253,161999
258,162017
269,162036
328,162053
331,162068
306,162085
284,162105
273,162121
271,162137
280,162154
286,162171
287,162188
296,162206
308,162225
315,162242
316,162258
312,162274
308,162291
307,162310
313,162325
325,162340
337,162359
349,162376
347,162392
338,162408
328,162425
305,162444
302,162459
348,162475
347,162493
322,162510
307,162528
292,162549
276,162568
266,162585
257,162600
252,162618
246,162636
247,162653
259,162669
273,162685
283,162704
286,162720
291,162736
297,162753
301,162770
300,162788
296,162803
295,162820
294,162838
286,162854
272,162870
294,162887
353,162906
337,162922
300,162949
285,162966
279,162981
281,162998
289,163016
303,163035
321,163051
334,163066
343,163085
346,163102
337,163118
319,163134
314,163151
319,163170
331,163185
334,163201
333,163219
318,163236
294,163252
273,163268
254,163286
235,163304
278,163319
291,163335
265,163353
254,163371
259,163386
266,163402
277,163420
286,163438
288,163453
283,163469
286,163487
300,163505
312,163521
312,163536
306,163554
308,163572
313,163588
320,163603
322,163621
319,163639
310,163657
300,163675
298,163693
295,163710
309,163726
369,163743
379,163762
352,163778
331,163795
316,163833
303,163852
313,163869
322,163885
320,163902
309,163920
299,163938
291,163953
282,163971
267,163988
261,164004
257,164020
266,164037
278,164056
288,164072
288,164087
291,164104
295,164122
289,164139
315,164154
351,164171
328,164189
306,164206
299,164221
285,164238
282,164256
286,164273
292,164288
297,164305
301,164323
306,164340
309,164356
310,164372
311,164390
314,164409
321,164426
328,164443
336,164459
339,164476
331,164493
316,164509
305,164527
302,164543
299,164559
329,164576
363,164594
320,164619
272,164634
257,164649
243,164669
235,164687
237,164703
241,164718
253,164737
268,164754
283,164770
296,164786
303,164804
310,164822
312,164837
306,164852
299,164871
306,164888
310,164904
304,164920
297,164938
294,164956
292,164971
291,164986
332,165005
353,165022
315,165039
292,165054
280,165071
281,165090
288,165105
298,165121
312,165142
322,165159
331,165175
331,165191
327,165210
327,165226
337,165241
347,165259
350,165276
338,165294
323,165309
311,165325
291,165344
264,165360
244,165376
225,165393
215,165410
259,165427
301,165442
281,165459
267,165477
272,165494
280,165510
289,165526
296,165544
293,165561
292,165576
297,165594
302,165611
311,165627
315,165645
317,165683
321,165702
324,165720
322,165735
318,165751
309,165771
308,165787
310,165804
312,165820
329,165838
388,165855
377,165874
341,165891
314,165908
295,165924
294,165942
304,165958
314,165975
319,165992
307,166008
295,166026
284,166042
276,166059
267,166076
255,166092
250,166110
253,166126
265,166144
278,166160
283,166176
285,166194
287,166210
292,166226
288,166244
302,166260
351,166278
344,166294
320,166311
300,166328
289,166345
285,166362
285,166378
289,166395
292,166412
296,166428
299,166446
306,166462
313,166479
317,166496
324,166512
330,166530
330,166546
327,166562
321,166580
318,166600
318,166618
319,166635
317,166660
306,166676
336,166691
330,166710
287,166728
261,166745
246,166761
240,166777
236,166796
241,166812
254,166829
268,166845
286,166863
298,166880
307,166895
314,166913
313,166931
303,166947
300,166963
304,166980
312,166999
313,167015
307,167030
301,167048
298,167065
289,167083
291,167098
333,167115
345,167133
311,167150
295,167165
292,167183
297,167200
307,167218
316,167233
319,167249
317,167268
309,167284
309,167301
320,167317
334,167337
334,167355
328,167371
314,167388
299,167405
289,167421
286,167439
273,167455
257,167473
246,167489
242,167507
251,167545
331,167564
300,167580
287,167598
280,167614
277,167632
280,167649
290,167666
300,167683
305,167700
305,167716
312,167734
318,167750
317,167767
310,167784
304,167800
305,167818
309,167834
314,167851
321,167868
321,167884
327,167902
325,167918
307,167936
300,167952
356,167969
346,167986
322,168002
313,168018
305,168036
298,168052
286,168073
271,168088
266,168105
266,168124
265,168140
265,168156
261,168173
265,168190
274,168208
288,168223
297,168240
298,168258
304,168274
309,168291
309,168307
296,168326
289,168342
286,168357
297,168375
355,168393
346,168410
314,168425
301,168442
296,168460
291,168477
287,168493
287,168509
296,168527
308,168544
319,168559
336,168577
349,168595
356,168611
353,168627
344,168644
330,168662
315,168678
319,168695
325,168720
323,168737
310,168753
288,168770
266,168788
284,168808
315,168824
281,168842
250,168858
243,168875
248,168892
261,168908
274,168926
285,168942
292,168958
304,168976
310,168992
306,169009
302,169026
299,169042
307,169060
308,169076
305,169093
307,169110
315,169126
315,169143
310,169160
301,169177
293,169194
276,169210
301,169228
351,169244
340,169261
327,169277
321,169294
317,169311
309,169328
300,169345
300,169363
308,169400
338,169418
335,169435
319,169452
306,169468
294,169487
283,169503
270,169521
260,169537
255,169556
251,169576
254,169592
256,169608
255,169625
258,169645
322,169661
336,169676
313,169693
296,169711
291,169728
296,169743
298,169760
297,169778
293,169795
298,169810
305,169827
309,169845
310,169862
309,169877
306,169894
305,169912
308,169928
319,169945
331,169961
337,169979
338,169996
324,170011
307,170028
291,170046
280,170062
329,170078
373,170095
349,170113
315,170130
287,170145
270,170162
256,170180
247,170196
247,170212
246,170229
251,170247
262,170266
279,170281
287,170300
296,170317
302,170333
310,170349
314,170366
314,170384
317,170400
315,170416
310,170434
297,170451
279,170467
269,170482
296,170501
355,170518
