309	322298
310	322299
311	322300
312	322300
312	322301
313	322302
313	322304
313	322305
312	322306
311	322307
310	322308
309	322309
308	322310
308	322311
308	322312
308	322313
309	322314
310	322315
310	322316
312	322317
312	322318
313	322319
313	322320
313	322321
312	322322
312	322323
311	322324
310	322325
309	322326
308	322327
308	322328
308	322329
308	322330
309	322331
310	322332
311	322333
313	322334
313	322335
313	322336
313	322337
313	322338
312	322339
311	322340
311	322341
310	322342
309	322343
308	322344
308	322345
308	322347
308	322348
309	322349
310	322350
311	322351
312	322352
313	322352
313	322353
313	322354
313	322355
312	322356
311	322357
311	322358
310	322359
309	322360
308	322361
308	322362
309	322363
309	322364
310	322365
311	322366
312	322367
313	322368
314	322369
314	322370
313	322371
313	322372
312	322373
312	322374
311	322375
310	322376
309	322377
309	322378
309	322379
309	322380
310	322381
311	322382
312	322383
313	322384
314	322385
314	322386
314	322387
314	322388
313	322390
312	322391
311	322392
310	322393
310	322394
309	322395
309	322396
309	322397
310	322398
310	322399
311	322400
312	322401
313	322402
314	322403
314	322404
314	322405
314	322405
313	322406
312	322407
311	322408
310	322409
309	322410
309	322411
309	322412
309	322413
310	322414
311	322415
312	322416
313	322417
314	322418
314	322419
314	322420
314	322421
313	322422
312	322423
312	322424
311	322425
310	322426
309	322427
309	322428
309	322429
310	322430
310	322432
311	322433
313	322434
313	322435
314	322436
314	322437
314	322438
313	322439
313	322440
312	322441
311	322442
310	322443
310	322444
309	322445
309	322446
309	322447
310	322448
310	322449
312	322450
313	322451
313	322452
314	322453
314	322454
314	322455
314	322456
313	322456
312	322457
311	322458
310	322459
309	322460
309	322461
309	322462
309	322463
310	322464
311	322465
312	322466
313	322467
314	322468
314	322469
314	322470
314	322471
314	322472
313	322473
312	322475
311	322476
310	322477
310	322478
310	322479
310	322480
311	322481
312	322482
313	322483
314	322484
315	322485
316	322486
316	322487
316	322488
316	322489
315	322490
315	322491
314	322492
313	322493
313	322494
312	322495
312	322496
313	322497
314	322498
314	322499
316	322500
317	322501
318	322502
318	322503
319	322504
318	322505
318	322506
318	322507
317	322507
317	322508
316	322509
316	322510
316	322511
316	322512
317	322513
318	322514
319	322515
320	322516
321	322518
322	322519
322	322520
323	322521
322	322522
322	322523
321	322524
320	322525
319	322526
319	322527
318	322528
318	322529
319	322530
319	322531
320	322532
321	322533
323	322534
323	322535
323	322536
324	322537
324	322538
323	322539
322	322540
322	322541
321	322542
320	322543
319	322544
319	322545
319	322546
319	322547
320	322548
321	322549
321	322550
322	322551
323	322552
323	322553
323	322554
322	322555
321	322556
320	322557
319	322558
318	322560
317	322561
316	322562
315	322562
315	322563
315	322564
316	322565
316	322566
317	322567
317	322568
318	322569
318	322570
318	322571
317	322572
316	322573
315	322574
314	322575
313	322576
311	322577
311	322578
310	322579
310	322580
311	322581
311	322582
312	322583
313	322584
313	322585
314	322586
313	322587
313	322588
312	322589
311	322590
310	322591
309	322592
308	322593
307	322594
307	322595
306	322596
307	322597
307	322598
308	322599
309	322600
310	322601
310	322603
310	322604
310	322605
310	322606
309	322607
308	322608
307	322609
306	322610
305	322611
304	322612
304	322613
304	322613
304	322614
305	322615
306	322616
307	322617
308	322618
308	322619
308	322620
308	322621
307	322622
306	322623
306	322624
305	322625
304	322626
302	322627
302	322628
302	322629
301	322630
302	322631
302	322632
303	322633
304	322634
304	322635
303	322636
303	322637
302	322638
301	322639
299	322640
298	322641
297	322642
295	322643
294	322644
294	322646
294	322647
294	322648
295	322649
297	322650
298	322651
300	322652
301	322653
303	322654
304	322655
305	322656
306	322657
307	322658
308	322659
310	322660
312	322661
314	322662
317	322663
320	322664
324	322665
328	322665
333	322666
337	322667
342	322668
346	322669
350	322670
353	322671
356	322672
358	322673
361	322674
363	322675
365	322676
366	322677
368	322678
370	322679
372	322680
374	322681
375	322682
376	322683
377	322684
377	322685
377	322686
376	322688
375	322689
373	322690
371	322691
369	322692
367	322693
365	322694
363	322695
362	322696
360	322697
359	322698
358	322699
358	322700
357	322701
355	322702
354	322703
353	322704
351	322705
349	322706
346	322707
344	322708
341	322709
339	322710
337	322711
335	322712
334	322713
333	322714
332	322715
332	322716
332	322716
331	322717
331	322718
331	322719
330	322720
329	322721
327	322722
326	322723
324	322724
322	322725
321	322726
320	322727
318	322728
318	322729
318	322731
318	322732
318	322733
319	322734
319	322735
319	322736
318	322737
318	322738
316	322739
316	322740
314	322741
313	322742
311	322743
310	322744
309	322745
308	322746
308	322747
308	322748
308	322749
309	322750
310	322751
310	322752
310	322753
310	322754
310	322755
309	322756
308	322757
307	322758
306	322759
304	322760
304	322761
303	322762
303	322763
303	322764
303	322765
304	322766
305	322767
306	322768
306	322768
306	322769
306	322770
306	322771
305	322772
304	322774
304	322775
302	322776
302	322777
301	322778
300	322779
300	322780
301	322781
302	322782
302	322783
303	322784
304	322785
305	322786
305	322787
305	322788
304	322789
304	322790
303	322791
302	322792
301	322793
300	322794
300	322795
300	322796
300	322797
301	322798
301	322799
302	322800
303	322801
304	322802
304	322803
305	322804
305	322805
304	322806
304	322807
303	322808
302	322809
301	322810
300	322811
300	322812
300	322813
301	322814
302	322816
303	322817
304	322818
305	322819
306	322820
306	322820
306	322821
306	322822
306	322823
305	322824
304	322825
303	322826
303	322827
302	322828
302	322829
303	322830
303	322831
304	322832
305	322833
308	322834
308	322835
308	322836
308	322837
309	322838
308	322839
308	322840
307	322841
306	322842
305	322843
305	322844
305	322845
305	322846
305	322847
306	322848
307	322849
308	322850
309	322851
310	322852
311	322853
311	322854
311	322855
311	322856
310	322857
309	322859
309	322860
308	322861
308	322862
308	322863
308	322864
309	322865
310	322866
311	322867
312	322868
313	322869
314	322870
315	322871
315	322871
314	322872
314	322873
314	322874
313	322875
312	322876
312	322877
311	322878
312	322879
312	322880
313	322881
314	322882
315	322883
316	322884
318	322885
319	322886
319	322887
319	322888
319	322889
319	322890
318	322891
317	322892
317	322893
316	322894
316	322895
317	322896
318	322897
318	322898
320	322899
321	322900
322	322902
323	322903
324	322904
325	322905
325	322906
324	322907
324	322908
323	322909
323	322910
323	322911
323	322912
322	322913
323	322914
324	322915
325	322916
327	322917
328	322918
329	322919
330	322920
331	322921
332	322922
332	322923
331	322923
331	322924
331	322925
330	322926
330	322927
330	322928
330	322929
331	322930
332	322931
333	322932
335	322933
337	322934
337	322935
338	322936
339	322937
339	322938
339	322939
339	322940
338	322941
338	322942
337	322944
337	322945
337	322946
338	322947
339	322948
340	322949
341	322950
342	322951
343	322952
344	322953
345	322954
345	322955
345	322956
345	322957
345	322958
344	322959
343	322960
343	322961
343	322962
343	322963
343	322964
344	322965
345	322966
346	322967
346	322968
347	322969
348	322970
348	322971
348	322972
347	322973
347	322974
346	322974
345	322975
344	322976
343	322977
342	322978
342	322979
342	322980
342	322981
343	322982
343	322983
344	322984
344	322985
343	322987
343	322988
342	322989
341	322990
340	322991
339	322992
337	322993
335	322994
334	322995
333	322996
333	322997
332	322998
332	322999
333	323000
333	323001
333	323002
332	323003
332	323004
331	323005
330	323006
328	323007
327	323008
325	323009
323	323010
321	323011
320	323012
319	323013
318	323014
318	323015
318	323016
318	323017
318	323018
318	323019
318	323020
316	323021
316	323022
314	323023
313	323024
311	323025
309	323025
307	323026
305	323027
304	323028
304	323030
303	323031
303	323032
303	323033
303	323034
304	323035
303	323036
303	323037
302	323038
301	323039
300	323040
299	323041
297	323042
296	323043
294	323044
293	323045
292	323046
292	323047
292	323048
292	323049
292	323050
292	323051
293	323052
293	323053
293	323054
292	323055
291	323056
290	323057
289	323058
288	323059
286	323060
285	323061
284	323062
284	323063
284	323064
284	323065
285	323066
286	323067
286	323068
286	323069
287	323070
287	323072
286	323073
285	323074
285	323075
283	323076
282	323077
281	323078
281	323078
280	323079
280	323080
281	323081
281	323082
282	323083
283	323084
283	323085
284	323086
284	323087
284	323088
283	323089
283	323090
282	323091
281	323092
280	323093
279	323094
279	323095
279	323096
279	323097
280	323098
280	323099
281	323100
282	323101
283	323102
284	323103
284	323104
284	323105
283	323106
282	323107
282	323108
281	323109
280	323110
279	323111
279	323112
279	323113
280	323115
281	323116
281	323117
282	323118
283	323119
284	323120
285	323121
285	323122
285	323123
284	323124
283	323125
283	323126
282	323127
281	323128
281	323129
281	323129
281	323130
281	323131
283	323132
283	323133
284	323134
286	323135
286	323136
287	323137
287	323138
287	323139
286	323140
285	323141
285	323142
284	323143
283	323144
283	323145
283	323146
283	323147
284	323148
285	323149
286	323150
287	323151
288	323152
289	323153
289	323154
289	323155
289	323156
288	323158
287	323159
287	323160
286	323161
285	323162
286	323163
285	323164
286	323165
287	323166
288	323167
289	323168
290	323169
291	323170
291	323171
292	323172
291	323173
291	323174
290	323175
290	323176
289	323177
288	323178
288	323179
288	323180
288	323180
289	323181
290	323182
291	323183
292	323184
293	323185
293	323186
294	323187
294	323188
294	323189
293	323190
292	323191
291	323192
290	323193
290	323194
290	323195
290	323196
290	323197
291	323198
292	323200
293	323201
294	323202
295	323203
295	323204
296	323205
296	323206
295	323207
295	323208
294	323209
293	323210
292	323211
292	323212
291	323213
292	323214
292	323215
293	323216
294	323217
295	323218
296	323219
297	323220
298	323221
297	323222
297	323223
297	323224
296	323225
295	323226
295	323227
294	323228
294	323229
293	323230
294	323231
294	323232
295	323232
296	323233
298	323234
298	323235
299	323236
299	323237
299	323238
299	323239
298	323240
297	323241
297	323243
296	323244
295	323245
295	323246
295	323247
296	323248
296	323249
297	323250
298	323251
299	323252
300	323253
301	323254
301	323255
301	323256
300	323257
299	323258
298	323259
298	323260
297	323261
296	323262
296	323263
296	323264
297	323265
298	323266
299	323267
300	323268
300	323269
302	323270
302	323271
302	323272
302	323273
301	323274
300	323275
299	323276
299	323277
298	323278
297	323279
297	323280
298	323281
299	323282
299	323283
301	323283
302	323284
302	323286
303	323287
303	323288
303	323289
302	323290
302	323291
301	323292
300	323293
299	323294
299	323295
298	323296
299	323297
299	323298
300	323299
301	323300
302	323301
303	323302
304	323303
304	323304
304	323305
304	323306
303	323307
303	323308
302	323309
301	323310
300	323311
300	323312
300	323313
300	323314
300	323315
301	323316
302	323317
303	323318
304	323319
305	323320
306	323321
305	323322
305	323323
304	323324
304	323325
303	323326
302	323328
301	323329
301	323330
301	323331
301	323332
302	323333
303	323334
304	323335
306	323336
306	323336
306	323337
306	323338
306	323339
305	323340
305	323341
304	323342
303	323343
302	323344
302	323345
302	323346
302	323347
302	323348
303	323349
304	323350
305	323351
306	323352
307	323353
307	323354
307	323355
307	323356
306	323357
305	323358
305	323359
304	323360
303	323361
302	323362
303	323363
303	323364
304	323365
305	323366
305	323367
306	323368
307	323369
308	323371
308	323372
308	323373
308	323374
307	323375
306	323376
305	323377
304	323378
304	323379
304	323380
304	323381
304	323382
304	323383
306	323384
307	323385
307	323386
308	323387
309	323387
309	323388
309	323389
308	323390
307	323391
306	323392
306	323393
305	323394
304	323395
304	323396
304	323397
305	323398
306	323399
307	323400
308	323401
309	323402
309	323403
310	323404
310	323405
309	323406
309	323407
308	323408
307	323409
306	323410
305	323411
305	323412
305	323414
305	323415
306	323416
307	323417
308	323418
309	323419
310	323420
310	323421
311	323422
310	323423
310	323424
309	323425
308	323426
307	323427
307	323428
306	323429
305	323430
306	323431
306	323432
307	323433
308	323434
309	323435
311	323436
311	323437
311	323438
311	323438
310	323439
310	323440
309	323441
308	323442
307	323443
307	323444
306	323445
306	323446
306	323447
307	323448
308	323449
309	323450
310	323451
310	323452
311	323453
312	323454
311	323456
311	323457
310	323458
309	323459
308	323460
308	323461
307	323462
306	323463
306	323464
307	323465
308	323466
308	323467
310	323468
310	323469
311	323470
312	323471
312	323472
312	323473
311	323474
310	323475
310	323476
309	323477
308	323478
307	323479
307	323480
307	323481
307	323482
308	323483
309	323484
310	323485
311	323486
312	323487
312	323488
312	323489
312	323490
311	323490
310	323491
310	323492
308	323493
308	323494
307	323495
307	323496
307	323497
308	323499
309	323500
310	323501
311	323502
312	323503
312	323504
313	323505
313	323506
312	323507
311	323508
311	323509
310	323510
309	323511
308	323512
307	323513
308	323514
308	323515
309	323516
310	323517
310	323518
312	323519
312	323520
313	323521
313	323522
313	323523
312	323524
311	323525
310	323526
309	323527
308	323528
308	323529
308	323530
308	323531
309	323532
310	323533
310	323534
312	323535
313	323536
313	323537
313	323538
313	323539
312	323540
312	323542
311	323543
310	323543
309	323544
308	323545
308	323546
308	323547
308	323548
309	323549
310	323550
311	323551
312	323552
313	323553
313	323554
313	323555
313	323556
312	323557
312	323558
311	323559
310	323560
309	323561
308	323562
308	323563
308	323564
309	323565
310	323566
310	323567
312	323568
312	323569
313	323570
313	323571
313	323572
313	323573
312	323574
312	323575
311	323576
310	323577
309	323578
308	323579
308	323580
309	323581
309	323582
310	323584
311	323585
312	323586
313	323587
313	323588
314	323589
313	323590
313	323591
313	323592
312	323593
311	323594
310	323594
309	323595
309	323596
309	323597
310	323598
310	323599
312	323600
313	323601
314	323602
315	323603
315	323604
316	323605
315	323606
315	323607
314	323608
314	323609
313	323610
312	323611
312	323612
312	323613
312	323614
313	323615
313	323616
314	323617
315	323618
317	323619
317	323620
318	323621
317	323622
317	323623
317	323624
316	323625
316	323627
315	323628
315	323629
314	323630
315	323631
315	323632
316	323633
318	323634
319	323635
321	323636
322	323637
322	323638
322	323639
322	323640
321	323641
321	323642
320	323643
319	323644
319	323645
318	323646
318	323646
318	323647
318	323648
319	323649
320	323650
321	323651
322	323652
323	323653
323	323654
324	323655
323	323656
323	323657
322	323658
321	323659
320	323660
319	323661
319	323662
319	323663
319	323664
319	323665
320	323666
321	323667
322	323668
323	323670
323	323671
323	323672
323	323673
322	323674
321	323675
320	323676
319	323677
318	323678
317	323679
316	323680
316	323681
316	323682
316	323683
317	323684
318	323685
318	323686
318	323687
319	323688
318	323689
318	323690
317	323691
316	323692
314	323693
313	323694
312	323695
311	323696
310	323697
311	323697
311	323698
311	323699
312	323700
312	323701
313	323702
313	323703
314	323704
313	323705
313	323706
312	323707
311	323708
310	323709
309	323710
308	323712
307	323713
307	323714
307	323715
307	323716
308	323717
309	323718
309	323719
310	323720
310	323721
310	323722
310	323723
309	323724
308	323725
308	323726
306	323727
306	323728
305	323729
304	323730
304	323731
304	323732
305	323733
305	323734
306	323735
308	323736
308	323737
308	323738
308	323739
308	323740
307	323741
306	323742
305	323743
304	323744
303	323745
303	323746
302	323747
302	323748
303	323749
303	323749
303	323750
304	323751
304	323752
305	323753
304	323755
304	323756
303	323757
302	323758
300	323759
298	323760
297	323761
296	323762
295	323763
294	323764
294	323765
295	323766
295	323767
296	323768
297	323769
298	323770
299	323771
300	323772
301	323773
301	323774
302	323775
302	323776
303	323777
304	323778
305	323779
307	323780
310	323781
313	323782
317	323783
321	323784
325	323785
329	323786
334	323787
338	323788
341	323789
344	323790
347	323791
350	323792
353	323793
356	323794
358	323795
361	323796
363	323798
366	323799
369	323800
372	323801
374	323801
376	323802
377	323803
378	323804
379	323805
378	323806
377	323807
375	323808
374	323809
372	323810
370	323811
368	323812
366	323813
365	323814
364	323815
364	323816
363	323817
362	323818
361	323819
360	323820
359	323821
357	323822
355	323823
353	323824
350	323825
348	323826
345	323827
343	323828
340	323829
338	323830
337	323831
336	323832
336	323833
335	323834
334	323835
336	323836
334	323837
333	323838
332	323840
331	323841
329	323842
327	323843
326	323844
324	323845
322	323846
321	323847
321	323848
320	323849
320	323850
320	323851
320	323852
321	323853
321	323853
321	323854
320	323855
319	323856
318	323857
317	323858
315	323859
314	323860
312	323861
311	323862
310	323863
310	323864
310	323865
310	323866
311	323867
311	323868
312	323869
312	323870
312	323871
311	323872
311	323873
310	323874
309	323875
308	323876
306	323877
305	323878
304	323879
304	323880
304	323881
304	323883
305	323884
306	323885
306	323886
307	323887
307	323888
307	323889
307	323890
306	323891
306	323892
304	323893
303	323894
303	323895
302	323896
301	323897
301	323898
301	323899
302	323900
302	323901
304	323902
304	323903
305	323904
305	323904
305	323905
305	323906
304	323907
304	323908
303	323909
302	323910
301	323911
300	323912
300	323913
300	323914
301	323915
301	323916
302	323917
303	323918
304	323919
305	323920
306	323921
305	323922
305	323923
304	323924
304	323926
303	323927
302	323928
301	323929
301	323930
301	323931
301	323932
302	323933
303	323934
304	323935
305	323936
307	323937
306	323938
307	323939
307	323940
306	323941
306	323942
305	323943
304	323944
303	323945
303	323946
303	323947
303	323948
303	323949
304	323950
305	323951
306	323952
307	323953
308	323954
308	323955
309	323955
309	323956
308	323957
307	323958
307	323959
306	323960
305	323961
305	323962
305	323963
305	323964
306	323965
307	323966
308	323968
309	323969
310	323970
311	323971
311	323972
312	323973
312	323974
311	323975
310	323976
309	323977
309	323978
308	323979
308	323980
308	323981
309	323982
310	323983
310	323984
312	323985
313	323986
314	323987
315	323988
315	323989
315	323990
315	323991
314	323992
314	323993
313	323994
312	323995
312	323996
312	323997
312	323998
313	323999
314	324000
315	324001
316	324002
317	324003
318	324004
319	324005
319	324006
319	324007
319	324008
319	324008
318	324009
317	324011
317	324012
317	324013
317	324014
318	324015
319	324016
320	324017
321	324018
322	324019
323	324020
324	324021
325	324022
325	324023
325	324024
325	324025
324	324026
324	324027
323	324028
323	324029
323	324030
323	324031
324	324032
325	324033
326	324034
328	324035
330	324036
330	324037
331	324038
332	324039
332	324040
332	324041
331	324042
331	324043
331	324044
330	324045
330	324046
330	324047
331	324048
332	324049
333	324050
334	324051
336	324052
337	324054
338	324055
339	324056
340	324057
339	324058
339	324059
339	324060
339	324060
338	324061
338	324062
338	324063
339	324064
339	324065
340	324066
341	324067
343	324068
344	324069
345	324070
346	324071
346	324072
346	324073
346	324074
346	324075
345	324076
345	324077
344	324078
344	324079
344	324080
344	324081
345	324082
346	324083
347	324084
348	324085
349	324086
349	324087
350	324088
350	324089
349	324090
349	324091
348	324092
347	324093
346	324094
345	324096
344	324097
344	324098
344	324099
344	324100
345	324101
345	324102
346	324103
346	324104
346	324105
346	324106
346	324107
345	324108
343	324109
342	324110
340	324111
339	324112
337	324112
336	324113
336	324114
335	324115
335	324116
335	324117
336	324118
335	324119
335	324120
335	324121
334	324122
333	324123
332	324124
330	324125
328	324126
326	324127
324	324128
323	324129
322	324130
321	324131
320	324132
320	324133
320	324134
320	324135
321	324136
320	324137
319	324139
318	324140
317	324141
315	324142
313	324143
312	324144
310	324145
308	324146
307	324147
306	324148
305	324149
305	324150
305	324151
305	324152
305	324153
305	324154
305	324155
304	324156
303	324157
302	324158
301	324159
299	324160
297	324161
296	324162
295	324163
293	324163
293	324164
293	324165
293	324166
293	324167
293	324168
294	324169
294	324170
294	324171
293	324172
292	324173
291	324174
290	324175
289	324176
287	324177
286	324178
285	324179
285	324180
285	324182
285	324183
285	324184
286	324185
286	324186
287	324187
287	324188
287	324189
287	324190
286	324191
285	324192
284	324193
283	324194
282	324195
281	324196
280	324197
280	324198
280	324199
281	324200
281	324201
282	324202
283	324203
284	324204
284	324205
284	324206
284	324207
283	324208
282	324209
281	324210
280	324211
279	324212
279	324213
278	324214
279	324214
279	324215
280	324216
280	324217
281	324218
282	324219
283	324220
284	324221
284	324222
283	324224
283	324225
282	324226
281	324227
280	324228
279	324229
279	324230
279	324231
279	324232
280	324233
280	324234
281	324235
282	324236
284	324237
284	324238
284	324239
284	324240
284	324241
283	324242
283	324243
282	324244
281	324245
280	324246
280	324247
280	324248
281	324249
282	324250
283	324251
284	324252
285	324253
285	324254
286	324255
286	324256
286	324257
286	324258
285	324259
284	324260
283	324261
283	324262
282	324263
282	324264
283	324265
283	324267
284	324267
285	324268
286	324269
287	324270
288	324271
288	324272
288	324273
288	324274
288	324275
287	324276
286	324277
285	324278
285	324279
284	324280
285	324281
285	324282
286	324283
287	324284
288	324285
289	324286
290	324287
291	324288
291	324289
291	324290
290	324291
290	324292
289	324293
288	324294
288	324295
287	324296
287	324297
287	324298
288	324299
288	324300
289	324301
291	324302
291	324303
293	324304
293	324305
293	324306
293	324307
293	324308
292	324310
291	324311
290	324312
290	324313
289	324314
289	324315
290	324316
290	324317
291	324318
292	324318
293	324319
294	324320
295	324321
295	324322
295	324323
295	324324
294	324325
293	324326
293	324327
292	324328
292	324329
291	324330
291	324331
292	324332
292	324333
293	324334
294	324335
296	324336
296	324337
297	324338
297	324339
297	324340
296	324341
296	324342
295	324343
294	324344
293	324345
293	324346
292	324347
293	324348
294	324349
294	324350
295	324352
297	324353
297	324354
298	324355
299	324356
299	324357
298	324358
298	324359
297	324360
297	324361
295	324362
295	324363
294	324364
294	324365
295	324366
295	324367
296	324368
297	324369
298	324369
299	324370
300	324371
300	324372
300	324373
300	324374
299	324375
299	324376
297	324377
297	324378
296	324379
296	324380
296	324381
296	324382
297	324383
298	324384
300	324385
301	324386
301	324387
302	324388
302	324389
302	324390
301	324391
300	324392
300	324393
299	324395
298	324396
298	324397
297	324398
298	324399
298	324400
299	324401
300	324402
301	324403
302	324404
303	324405
303	324406
303	324407
303	324408
302	324409
301	324410
300	324411
300	324412
299	324413
299	324414
299	324415
299	324416
300	324417
301	324418
302	324419
303	324420
304	324420
304	324421
304	324422
304	324423
304	324424
303	324425
302	324426
301	324427
300	324428
300	324429
299	324430
300	324431
300	324432
301	324433
302	324434
303	324435
304	324436
304	324438
305	324439
305	324440
305	324441
304	324442
303	324443
303	324444
302	324445
301	324446
300	324447
300	324448
301	324449
301	324450
302	324451
303	324452
304	324453
305	324454
306	324455
306	324456
306	324457
305	324458
305	324459
304	324460
303	324461
303	324462
302	324463
302	324464
302	324465
302	324466
303	324467
304	324468
305	324469
305	324470
306	324471
307	324472
307	324472
307	324473
306	324474
305	324475
305	324476
304	324477
303	324478
302	324480
302	324481
302	324482
303	324483
304	324484
304	324485
306	324486
306	324487
307	324488
308	324489
307	324490
307	324491
307	324492
306	324493
305	324494
304	324495
303	324496
303	324497
303	324498
303	324499
303	324500
305	324501
306	324502
306	324503
307	324504
308	324505
308	324506
308	324507
308	324508
307	324509
306	324510
305	324511
304	324512
304	324513
303	324514
304	324515
304	324516
305	324517
306	324518
307	324519
308	324520
308	324521
309	324523
309	324524
309	324524
308	324525
308	324526
307	324527
306	324528
305	324529
304	324530
304	324531
304	324532
305	324533
306	324534
307	324535
308	324536
310	324537
310	324538
310	324539
310	324540
309	324541
309	324542
308	324543
307	324544
306	324545
306	324546
305	324547
305	324548
305	324549
306	324550
307	324551
308	324552
309	324553
309	324554
310	324555
310	324556
310	324557
310	324558
309	324559
308	324560
307	324561
306	324562
306	324563
305	324564
305	324566
306	324567
307	324568
307	324569
309	324570
310	324571
310	324572
311	324573
311	324574
310	324575
310	324576
309	324576
308	324577
307	324578
306	324579
306	324580
306	324581
306	324582
307	324583
308	324584
309	324585
310	324586
311	324587
311	324588
312	324589
312	324590
311	324591
310	324592
309	324593
308	324594
308	324595
307	324596
307	324597
307	324598
307	324599
308	324600
309	324601
310	324602
311	324603
312	324604
312	324605
312	324606
312	324608
311	324609
311	324610
310	324611
309	324612
308	324613
307	324614
307	324615
307	324616
308	324617
309	324618
309	324619
310	324620
311	324621
312	324622
312	324623
312	324624
312	324625
311	324626
310	324627
310	324627
309	324628
308	324629
307	324630
307	324631
308	324632
308	324633
309	324634
310	324635
312	324636
314	324637
312	324638
312	324639
313	324640
312	324641
311	324642
310	324643
309	324644
308	324645
308	324646
308	324647
308	324648
308	324649
309	324651
310	324652
310	324653
312	324654
312	324655
313	324656
313	324657
312	324658
312	324659
311	324660
310	324661
310	324662
309	324663
308	324664
308	324665
308	324666
309	324667
309	324668
311	324669
311	324670
312	324671
313	324672
313	324673
313	324674
313	324675
312	324676
311	324677
310	324678
309	324679
308	324679
308	324680
308	324681
309	324682
309	324683
310	324684
311	324685
312	324686
313	324687
313	324688
314	324689
313	324690
313	324691
312	324692
311	324694
310	324695
310	324696
309	324697
308	324698
309	324699
309	324700
310	324701
311	324702
312	324703
313	324704
314	324705
314	324706
314	324707
313	324708
313	324709
312	324710
311	324711
310	324712
309	324713
309	324714
309	324715
309	324716
310	324717
311	324718
312	324719
313	324720
313	324721
314	324722
314	324723
314	324724
314	324725
313	324726
312	324727
311	324728
310	324729
309	324730
309	324731
309	324732
309	324732
310	324733
311	324734
312	324736
314	324737
315	324738
314	324739
314	324740
314	324741
313	324742
313	324743
312	324744
310	324745
309	324746
309	324747
309	324748
309	324749
309	324750
310	324751
311	324752
312	324753
313	324754
314	324755
314	324756
314	324757
314	324758
313	324759
312	324760
311	324761
311	324762
310	324763
309	324764
309	324765
310	324766
310	324767
311	324768
312	324769
313	324770
314	324771
314	324772
314	324773
314	324774
314	324775
313	324776
312	324777
311	324779
310	324780
309	324781
309	324782
309	324783
310	324784
311	324785
311	324786
312	324786
313	324787
314	324788
314	324789
315	324790
314	324791
314	324792
313	324793
312	324794
311	324795
310	324796
309	324797
309	324798
310	324799
310	324800
311	324801
312	324802
313	324803
314	324804
315	324805
315	324806
315	324807
315	324808
314	324809
313	324810
312	324811
312	324812
311	324813
311	324814
311	324815
312	324816
313	324817
314	324818
315	324819
316	324820
317	324822
318	324823
318	324824
317	324825
317	324826
316	324827
315	324828
315	324829
314	324830
313	324831
313	324832
314	324833
314	324834
315	324835
316	324836
317	324837
319	324838
319	324839
320	324839
320	324840
319	324841
319	324842
319	324843
318	324844
317	324845
317	324846
316	324847
316	324848
317	324849
317	324850
318	324851
319	324852
321	324853
321	324854
322	324855
322	324856
322	324857
321	324858
321	324859
320	324860
319	324861
318	324862
317	324864
317	324865
317	324866
318	324867
318	324868
319	324869
321	324870
321	324871
322	324872
322	324873
322	324874
322	324875
321	324876
320	324877
319	324878
318	324879
317	324880
317	324881
316	324882
316	324883
317	324884
317	324885
318	324886
318	324887
319	324888
319	324889
319	324890
319	324891
319	324891
317	324892
316	324893
315	324894
314	324895
313	324896
312	324897
312	324898
312	324899
312	324900
313	324901
314	324902
314	324903
315	324904
315	324905
315	324907
315	324908
314	324909
313	324910
312	324911
311	324912
309	324913
309	324914
308	324915
308	324916
309	324917
309	324918
310	324919
311	324920
311	324921
312	324922
312	324923
312	324924
312	324925
311	324926
310	324927
308	324928
308	324929
306	324930
306	324931
306	324932
306	324933
306	324934
307	324935
308	324936
310	324937
312	324938
310	324939
310	324940
310	324941
310	324942
309	324942
307	324943
307	324944
305	324945
305	324946
304	324947
304	324948
305	324950
305	324951
306	324952
307	324953
308	324954
309	324955
309	324956
309	324957
308	324958
307	324959
306	324960
305	324961
304	324962
302	324963
301	324964
301	324965
300	324966
300	324967
300	324968
300	324969
300	324970
301	324971
301	324972
301	324973
300	324974
300	324975
299	324976
298	324977
297	324978
297	324979
296	324980
297	324981
297	324982
299	324983
301	324984
303	324985
306	324986
309	324987
312	324988
315	324989
318	324990
320	324992
323	324993
325	324994
328	324994
331	324995
334	324996
336	324997
340	324998
344	324999
349	325000
353	325001
357	325002
362	325003
366	325004
369	325005
373	325006
375	325007
377	325008
378	325009
379	325010
379	325011
379	325012
378	325013
378	325014
377	325015
377	325016
376	325017
376	325018
376	325019
376	325020
375	325021
374	325022
373	325023
372	325024
369	325025
367	325026
365	325027
362	325028
360	325029
357	325030
355	325031
353	325032
352	325033
350	325035
349	325036
348	325037
349	325038
348	325039
345	325040
344	325041
342	325042
340	325043
338	325044
336	325045
334	325046
332	325046
330	325047
329	325048
328	325049
328	325050
328	325051
328	325052
328	325053
327	325054
327	325055
327	325056
326	325057
325	325058
323	325059
322	325060
320	325061
319	325062
317	325063
316	325064
315	325065
315	325066
315	325067
315	325068
315	325069
316	325070
316	325071
316	325072
316	325073
315	325074
314	325075
313	325076
311	325078
310	325079
309	325080
307	325081
307	325082
307	325083
307	325084
307	325085
308	325086
308	325087
309	325088
309	325089
310	325090
309	325091
309	325092
308	325093
307	325094
306	325095
304	325096
303	325097
302	325098
302	325098
302	325099
303	325100
303	325101
304	325102
304	325103
305	325104
306	325105
306	325106
306	325107
305	325108
304	325109
303	325110
302	325111
302	325112
301	325113
300	325114
300	325115
301	325116
301	325117
302	325118
303	325120
304	325121
304	325122
305	325123
305	325124
305	325125
304	325126
304	325127
302	325128
302	325129
301	325130
300	325131
300	325132
300	325133
301	325134
301	325135
303	325136
304	325137
305	325138
305	325139
305	325140
306	325141
305	325142
305	325143
304	325144
303	325145
302	325146
302	325147
301	325148
301	325149
302	325150
302	325151
303	325152
304	325152
305	325153
306	325154
307	325155
307	325156
307	325157
307	325158
306	325159
305	325160
304	325161
304	325163
303	325164
303	325165
303	325166
304	325167
305	325168
306	325169
307	325170
308	325171
309	325172
309	325173
310	325174
309	325175
309	325176
308	325177
308	325178
307	325179
306	325180
306	325181
306	325182
306	325183
307	325184
308	325185
309	325186
310	325187
311	325188
312	325189
313	325190
313	325191
313	325192
312	325193
311	325194
311	325195
310	325196
309	325197
309	325198
309	325199
310	325200
311	325201
312	325202
313	325203
314	325203
315	325204
316	325206
316	325207
316	325208
316	325209
315	325210
315	325211
314	325212
313	325213
313	325214
313	325215
313	325216
314	325217
315	325218
317	325219
318	325220
319	325221
320	325222
320	325223
321	325224
321	325225
321	325226
320	325227
319	325228
319	325229
318	325230
319	325231
319	325232
319	325233
320	325234
321	325235
323	325236
324	325237
326	325238
327	325239
327	325240
327	325241
327	325242
327	325243
326	325244
326	325245
325	325246
325	325248
325	325249
326	325250
327	325251
327	325252
329	325253
330	325254
332	325255
333	325256
334	325256
334	325257
334	325258
334	325259
334	325260
333	325261
333	325262
333	325263
332	325264
333	325265
334	325266
334	325267
335	325268
337	325269
338	325270
339	325271
340	325272
341	325273
342	325274
341	325275
341	325276
341	325277
340	325278
340	325279
340	325280
339	325281
340	325282
340	325283
341	325284
343	325285
344	325286
345	325287
346	325288
347	325289
347	325291
347	325292
347	325293
346	325294
346	325295
345	325296
344	325297
344	325298
343	325299
344	325300
344	325301
345	325302
346	325303
347	325304
347	325305
348	325306
348	325307
348	325307
347	325308
346	325309
345	325310
344	325311
343	325312
342	325313
340	325314
340	325315
340	325316
340	325317
340	325318
340	325319
341	325320
341	325321
340	325322
340	325323
340	325324
338	325325
337	325326
335	325327
334	325328
332	325329
330	325330
329	325331
328	325332
328	325334
328	325335
328	325336
327	325337
329	325338
329	325339
327	325340
326	325341
325	325342
323	325343
321	325344
320	325345
318	325346
316	325347
315	325348
313	325349
312	325350
312	325351
312	325352
312	325353
312	325354
312	325355
312	325356
311	325357
310	325358
309	325359
307	325359
306	325360
304	325361
302	325362
301	325363
300	325364
299	325365
298	325366
298	325367
298	325368
298	325369
298	325370
298	325371
298	325372
298	325373
297	325374
296	325376
295	325377
293	325378
292	325379
290	325380
289	325381
288	325382
288	325383
288	325384
288	325385
288	325386
289	325387
289	325388
290	325389
289	325390
289	325391
289	325392
288	325393
287	325394
285	325395
284	325396
283	325397
282	325398
281	325399
281	325400
282	325401
282	325402
283	325403
284	325404
284	325405
285	325406
284	325407
284	325408
284	325409
283	325410
282	325410
281	325411
280	325412
279	325413
278	325414
278	325415
278	325416
279	325417
280	325419
281	325420
282	325421
282	325422
283	325423
283	325424
283	325425
282	325426
281	325427
280	325428
279	325429
278	325430
278	325431
278	325432
278	325433
278	325434
279	325435
280	325436
281	325437
283	325438
282	325439
283	325440
283	325441
283	325442
282	325443
281	325444
280	325445
280	325446
279	325447
279	325448
279	325449
279	325450
279	325451
281	325452
282	325453
282	325454
284	325455
284	325456
284	325457
284	325458
284	325459
283	325460
283	325462
282	325463
281	325463
281	325464
280	325465
281	325466
281	325467
282	325468
283	325469
284	325470
285	325471
286	325472
286	325473
286	325474
286	325475
286	325476
285	325477
284	325478
284	325479
283	325480
282	325481
282	325482
283	325483
283	325484
284	325485
285	325486
286	325487
287	325488
288	325489
288	325490
288	325491
288	325492
288	325493
287	325494
286	325495
286	325496
285	325497
284	325498
285	325499
285	325500
286	325501
287	325502
288	325504
289	325505
290	325506
290	325507
291	325508
290	325509
290	325510
290	325511
289	325512
288	325513
288	325514
287	325514
287	325515
287	325516
288	325517
288	325518
289	325519
291	325520
291	325521
292	325522
293	325523
293	325524
293	325525
292	325526
292	325527
291	325528
290	325529
290	325530
289	325531
289	325532
289	325533
290	325534
291	325535
292	325536
293	325537
295	325538
294	325539
295	325540
295	325541
294	325542
294	325543
293	325544
292	325545
292	325547
291	325548
290	325549
291	325550
291	325551
292	325552
293	325553
294	325554
295	325555
296	325556
296	325557
297	325558
296	325559
296	325560
295	325561
295	325562
294	325563
293	325564
293	325565
292	325565
293	325566
293	325567
294	325568
295	325569
296	325570
297	325571
298	325572
298	325573
299	325574
298	325575
298	325576
297	325577
296	325578
295	325579
294	325580
294	325581
294	325582
295	325583
295	325584
296	325585
297	325586
298	325587
299	325588
299	325590
300	325591
300	325592
299	325593
299	325594
298	325595
297	325596
296	325597
295	325598
295	325599
296	325600
296	325601
297	325602
298	325603
299	325604
299	325605
301	325606
301	325607
301	325608
301	325609
300	325610
300	325611
299	325612
298	325613
297	325614
297	325615
297	325616
297	325617
298	325618
298	325618
299	325619
300	325620
301	325621
302	325622
303	325623
302	325624
302	325625
301	325626
301	325627
300	325628
299	325629
298	325630
298	325632
298	325633
298	325634
299	325635
300	325636
301	325637
302	325638
304	325639
303	325640
304	325641
303	325642
303	325643
303	325644
301	325645
301	325646
300	325647
299	325648
299	325649
299	325650
300	325651
301	325652
302	325653
302	325654
303	325655
304	325656
305	325657
305	325658
304	325659
304	325660
303	325661
302	325662
301	325663
301	325664
300	325665
300	325666
300	325667
301	325668
302	325669
303	325669
304	325670
305	325671
305	325672
306	325673
306	325675
305	325676
305	325677
304	325678
303	325679
302	325680
302	325681
301	325682
301	325683
302	325684
303	325685
303	325686
304	325687
305	325688
306	325689
307	325690
307	325691
307	325692
306	325693
305	325694
305	325695
304	325696
303	325697
302	325698
302	325699
302	325700
303	325701
304	325702
305	325703
306	325704
307	325705
307	325706
308	325707
308	325708
307	325709
307	325710
306	325711
305	325712
304	325713
304	325714
303	325715
303	325716
303	325718
304	325719
305	325720
306	325721
307	325722
308	325722
309	325723
309	325724
309	325725
308	325726
308	325727
307	325728
306	325729
305	325730
304	325731
304	325732
304	325733
304	325734
305	325735
306	325736
307	325737
306	325738
310	325739
309	325740
309	325741
309	325742
308	325743
308	325744
307	325745
306	325746
305	325747
304	325748
304	325749
304	325750
305	325751
306	325752
307	325753
308	325754
309	325755
309	325756
310	325757
310	325758
309	325760
309	325761
308	325762
307	325763
306	325764
305	325765
305	325766
305	325767
305	325768
306	325769
307	325770
308	325771
309	325772
309	325773
310	325774
310	325775
310	325775
309	325776
309	325777
308	325778
307	325779
306	325780
306	325781
305	325782
306	325783
306	325784
307	325785
308	325786
309	325787
310	325788
311	325789
311	325790
311	325791
311	325792
310	325793
309	325794
308	325795
307	325796
307	325797
306	325798
306	325799
306	325800
307	325801
308	325803
309	325804
310	325805
311	325806
311	325807
312	325808
311	325809
311	325810
310	325811
309	325812
308	325813
308	325814
307	325815
306	325816
306	325817
307	325818
308	325819
308	325820
310	325821
311	325822
311	325823
312	325824
312	325825
312	325826
311	325826
310	325827
310	325828
309	325829
308	325830
308	325831
307	325832
307	325833
308	325834
308	325835
309	325836
311	325837
312	325838
312	325839
312	325840
312	325841
312	325842
311	325843
311	325844
310	325846
309	325847
308	325848
307	325849
307	325850
308	325851
309	325852
309	325853
310	325854
311	325855
312	325856
312	325857
313	325858
313	325859
312	325860
312	325861
310	325862
309	325863
309	325864
308	325865
308	325866
308	325867
308	325868
309	325869
310	325870
311	325871
312	325872
313	325873
313	325874
313	325875
313	325876
312	325877
311	325878
310	325878
310	325879
309	325880
308	325881
308	325882
308	325883
309	325884
310	325885
311	325886
312	325888
312	325889
313	325890
313	325891
313	325892
313	325893
312	325894
311	325895
310	325896
309	325897
309	325898
308	325899
308	325900
309	325901
309	325902
310	325903
311	325904
312	325905
313	325906
314	325907
313	325908
313	325909
313	325910
312	325911
311	325912
310	325913
309	325914
309	325915
309	325916
309	325917
309	325918
310	325919
311	325920
312	325921
312	325922
313	325923
313	325924
313	325925
313	325926
312	325927
312	325928
311	325929
310	325931
309	325932
309	325933
308	325933
309	325934
309	325935
310	325936
311	325937
312	325938
314	325939
313	325940
313	325941
314	325942
313	325943
312	325944
311	325945
310	325946
309	325947
309	325948
309	325949
309	325950
309	325951
310	325952
311	325953
312	325954
313	325955
313	325956
314	325957
314	325958
314	325959
314	325960
313	325961
312	325962
311	325963
310	325964
310	325965
310	325966
311	325967
311	325968
312	325969
313	325970
314	325971
315	325972
316	325974
316	325975
316	325976
315	325977
315	325978
314	325979
313	325980
312	325981
312	325982
311	325983
311	325984
312	325985
313	325986
314	325987
315	325987
316	325988
317	325989
318	325990
318	325991
318	325992
318	325993
317	325994
317	325995
316	325996
315	325997
314	325998
314	325999
314	326000
315	326001
315	326002
317	326003
317	326004
318	326005
319	326006
319	326007
319	326008
319	326009
318	326010
317	326011
316	326012
316	326013
315	326014
314	326016
315	326017
315	326018
315	326019
316	326020
317	326021
318	326022
319	326023
319	326024
319	326025
319	326026
318	326027
317	326028
316	326029
315	326030
314	326031
313	326032
313	326033
313	326034
313	326035
313	326036
314	326037
315	326038
318	326039
317	326040
316	326041
316	326041
315	326042
315	326043
313	326044
312	326045
311	326046
310	326047
310	326048
309	326049
309	326050
310	326051
310	326052
311	326053
312	326054
313	326055
313	326056
313	326057
313	326059
312	326060
312	326061
310	326062
309	326063
309	326064
307	326065
307	326066
307	326067
307	326068
308	326069
309	326070
309	326071
310	326072
311	326073
311	326074
311	326075
311	326076
310	326077
309	326078
308	326079
307	326080
306	326081
306	326082
306	326083
305	326084
306	326085
307	326086
308	326087
309	326088
309	326089
310	326090
310	326091
310	326092
309	326093
309	326094
308	326095
307	326095
306	326096
305	326097
305	326098
305	326099
305	326100
306	326102
306	326103
307	326104
308	326105
309	326106
309	326107
309	326108
308	326109
308	326110
307	326111
305	326112
304	326113
302	326114
301	326115
300	326116
299	326117
299	326118
299	326119
300	326120
300	326121
300	326122
301	326123
301	326124
301	326125
301	326126
300	326127
300	326128
300	326129
299	326130
300	326131
300	326132
301	326133
303	326134
305	326135
308	326136
311	326137
314	326138
319	326139
321	326140
325	326141
327	326142
330	326144
333	326145
336	326146
339	326147
341	326148
344	326148
347	326149
351	326150
355	326151
359	326152
362	326153
366	326154
369	326155
372	326156
375	326157
376	326158
377	326159
378	326160
377	326161
377	326162
376	326163
374	326164
373	326165
372	326166
371	326167
371	326168
371	326169
370	326170
369	326171
369	326172
368	326173
367	326174
366	326175
364	326176
362	326177
359	326178
356	326179
354	326180
352	326181
349	326182
348	326183
346	326184
345	326185
344	326187
344	326188
343	326189
342	326190
341	326191
340	326192
338	326193
337	326194
335	326195
333	326196
331	326197
330	326198
327	326199
326	326200
326	326200
325	326201
325	326202
325	326203
325	326204
325	326205
326	326206
325	326207
324	326208
323	326209
322	326210
320	326211
319	326212
318	326213
316	326214
315	326215
315	326216
314	326217
314	326218
314	326219
315	326220
315	326221
316	326222
316	326223
316	326224
315	326225
315	326226
313	326227
312	326228
311	326230
309	326231
308	326232
307	326233
307	326234
307	326235
307	326236
308	326237
309	326238
311	326239
311	326240
310	326241
310	326242
310	326243
309	326244
308	326245
307	326246
306	326247
305	326248
304	326249
303	326250
304	326251
304	326252
304	326253
305	326253
306	326254
306	326255
307	326256
308	326257
308	326258
307	326259
306	326260
305	326261
304	326262
304	326263
303	326264
302	326265
302	326266
302	326267
303	326268
304	326269
304	326270
305	326272
306	326273
306	326274
307	326275
307	326276
306	326277
306	326278
305	326279
304	326280
303	326281
303	326282
302	326283
302	326284
303	326285
303	326286
304	326287
305	326288
306	326289
307	326290
308	326291
308	326292
307	326293
307	326294
306	326295
305	326296
304	326297
304	326298
303	326299
303	326300
303	326301
304	326302
305	326303
306	326304
307	326305
308	326306
309	326307
309	326308
309	326308
309	326309
308	326310
308	326311
307	326312
306	326313
305	326315
305	326316
305	326317
306	326318
306	326319
308	326320
309	326321
309	326322
311	326323
311	326324
311	326325
311	326326
311	326327
310	326328
310	326329
309	326330
308	326331
308	326332
307	326333
307	326334
308	326335
309	326336
311	326337
312	326338
314	326339
315	326340
314	326341
314	326342
314	326343
314	326344
313	326345
312	326346
311	326347
311	326348
311	326349
311	326350
311	326351
312	326352
313	326353
314	326354
315	326355
316	326356
317	326358
318	326359
318	326360
317	326361
317	326362
316	326362
316	326363
315	326364
315	326365
314	326366
315	326367
316	326368
317	326369
318	326370
319	326371
320	326372
321	326373
322	326374
322	326375
322	326376
322	326377
322	326378
321	326379
320	326380
320	326381
320	326382
320	326383
321	326384
321	326385
323	326386
324	326387
325	326388
326	326389
328	326390
328	326391
329	326392
328	326393
328	326394
328	326395
327	326396
327	326397
327	326398
327	326400
327	326401
328	326402
329	326403
330	326404
331	326405
333	326406
334	326407
335	326408
336	326409
336	326410
336	326411
335	326412
335	326413
335	326414
334	326415
334	326416
334	326416
335	326417
336	326418
337	326419
338	326420
340	326421
341	326422
342	326423
343	326424
343	326425
343	326426
343	326427
343	326428
342	326429
341	326430
341	326431
341	326432
341	326433
341	326434
342	326435
343	326436
345	326437
346	326438
348	326439
348	326440
348	326441
348	326443
348	326444
347	326445
347	326446
346	326447
345	326448
344	326449
344	326450
344	326451
344	326452
344	326453
345	326454
346	326455
346	326456
347	326457
347	326458
347	326459
346	326460
345	326461
344	326462
343	326463
342	326464
340	326465
339	326466
339	326467
338	326467
338	326468
338	326469
338	326470
338	326471
339	326472
339	326473
338	326474
337	326475
336	326476
335	326477
333	326478
331	326479
330	326480
328	326481
327	326482
326	326483
325	326484
325	326486
325	326487
324	326488
324	326489
325	326490
324	326491
323	326492
322	326493
321	326494
319	326495
317	326496
315	326497
314	326498
312	326499
311	326500
310	326501
309	326502
309	326503
309	326504
309	326505
309	326506
309	326507
309	326508
308	326509
307	326510
305	326511
303	326512
302	326513
300	326514
299	326515
297	326516
297	326517
296	326518
296	326518
296	326519
296	326520
296	326521
296	326522
297	326523
296	326524
296	326525
294	326526
294	326528
292	326529
291	326530
289	326531
288	326532
287	326533
287	326534
287	326535
287	326536
287	326537
288	326538
288	326539
290	326540
289	326541
289	326542
288	326543
287	326544
286	326545
285	326546
284	326547
283	326548
282	326549
281	326550
281	326551
282	326552
282	326553
282	326554
283	326555
284	326556
284	326557
285	326558
285	326559
284	326560
283	326561
282	326562
282	326563
280	326564
279	326565
279	326566
279	326567
279	326568
280	326569
280	326571
281	326571
282	326572
283	326573
283	326574
283	326575
283	326576
283	326577
282	326578
281	326579
280	326580
279	326581
279	326582
279	326583
279	326584
279	326585
280	326586
281	326587
282	326588
283	326589
283	326590
284	326591
284	326592
284	326593
283	326594
282	326595
282	326596
281	326597
280	326598
279	326599
279	326600
280	326601
280	326602
281	326603
282	326604
283	326605
284	326606
285	326607
285	326608
285	326609
285	326610
284	326611
283	326612
283	326614
282	326615
281	326616
281	326617
281	326618
281	326619
282	326620
283	326621
284	326622
285	326622
286	326623
287	326624
287	326625
287	326626
287	326627
286	326628
285	326629
285	326630
284	326631
283	326632
283	326633
284	326634
284	326635
285	326636
286	326637
287	326638
290	326639
290	326640
289	326641
289	326642
289	326643
289	326644
288	326645
287	326646
287	326647
286	326648
285	326649
285	326650
286	326651
286	326652
287	326653
288	326654
289	326656
290	326657
291	326658
291	326659
291	326660
291	326661
291	326662
290	326663
289	326664
288	326665
287	326666
287	326667
288	326668
288	326669
289	326670
290	326671
291	326672
292	326673
292	326673
293	326674
293	326675
293	326676
293	326677
293	326678
292	326679
291	326680
290	326681
290	326682
290	326683
290	326684
291	326685
291	326686
292	326687
294	326688
294	326689
295	326690
296	326691
296	326692
296	326693
295	326694
294	326695
294	326696
293	326697
292	326699
291	326700
292	326701
292	326702
293	326703
294	326704
295	326705
296	326706
297	326707
297	326708
298	326709
298	326710
297	326711
297	326712
296	326713
295	326714
294	326715
294	326716
293	326717
293	326718
294	326719
295	326720
296	326721
297	326722
298	326723
299	326724
299	326724
299	326725
299	326726
299	326727
298	326728
297	326729
296	326730
295	326731
295	326732
295	326733
295	326734
296	326735
297	326736
298	326737
299	326738
301	326739
301	326740
301	326742
301	326743
301	326744
300	326745
299	326746
299	326747
297	326748
297	326749
296	326750
296	326751
297	326752
298	326753
299	326754
300	326755
301	326756
302	326757
302	326758
302	326759
302	326760
302	326761
301	326762
300	326763
300	326764
299	326765
298	326766
298	326767
298	326768
298	326769
299	326770
300	326771
302	326772
302	326773
303	326774
304	326775
304	326776
303	326776
303	326777
302	326778
301	326779
300	326780
300	326781
299	326782
299	326784
300	326785
300	326786
301	326787
302	326788
303	326789
304	326790
305	326791
305	326792
305	326793
304	326794
304	326795
303	326796
302	326797
301	326798
301	326799
300	326800
300	326801
301	326802
301	326803
302	326804
304	326805
304	326806
305	326807
306	326808
306	326809
306	326810
305	326811
305	326812
304	326813
303	326814
302	326815
301	326816
301	326817
302	326818
302	326819
303	326820
304	326821
305	326822
306	326823
306	326824
307	326825
307	326827
307	326828
306	326828
305	326829
304	326830
304	326831
303	326832
302	326833
303	326834
303	326835
304	326836
304	326837
305	326838
306	326839
308	326840
308	326841
308	326842
308	326843
307	326844
307	326845
306	326846
305	326847
304	326848
304	326849
303	326850
303	326851
304	326852
305	326853
305	326854
307	326855
307	326856
308	326857
309	326858
309	326859
308	326860
308	326861
307	326862
306	326863
305	326864
304	326865
304	326866
304	326867
304	326868
305	326870
306	326871
306	326872
307	326873
308	326874
309	326875
309	326876
310	326877
309	326878
308	326879
308	326879
307	326880
306	326881
305	326882
305	326883
305	326884
305	326885
306	326886
307	326887
308	326888
309	326889
309	326890
310	326891
310	326892
310	326893
309	326894
309	326895
308	326896
307	326897
306	326898
305	326899
305	326900
305	326901
306	326902
307	326903
308	326904
309	326905
309	326906
310	326907
311	326908
311	326909
310	326910
310	326912
309	326913
308	326914
307	326915
306	326916
306	326917
306	326918
306	326919
307	326920
308	326921
308	326922
309	326923
310	326924
311	326925
311	326926
311	326927
311	326928
310	326929
309	326930
308	326931
307	326931
306	326932
306	326933
306	326934
307	326935
307	326936
309	326937
309	326938
310	326939
312	326940
311	326941
312	326942
312	326943
311	326944
310	326945
309	326946
308	326947
307	326948
307	326949
307	326950
307	326951
307	326952
308	326953
309	326955
310	326956
311	326957
312	326958
312	326959
312	326960
312	326961
311	326962
310	326963
309	326964
308	326965
308	326966
307	326967
307	326968
308	326969
308	326970
309	326971
310	326972
311	326973
312	326974
312	326975
313	326976
312	326977
312	326978
311	326979
310	326980
309	326981
309	326982
308	326983
308	326983
308	326984
308	326985
309	326986
310	326987
311	326988
312	326989
313	326990
313	326991
313	326992
313	326993
312	326994
311	326995
310	326996
309	326998
309	326999
308	327000
308	327001
308	327002
309	327003
310	327004
310	327005
312	327006
313	327007
313	327008
313	327009
313	327010
313	327011
312	327012
311	327013
310	327014
310	327015
309	327016
309	327017
308	327018
309	327019
310	327020
310	327021
311	327022
312	327023
313	327024
313	327025
314	327026
313	327027
312	327028
312	327029
311	327030
310	327031
309	327032
309	327033
308	327034
309	327035
309	327036
310	327037
311	327038
312	327040
314	327041
314	327041
314	327042
314	327043
313	327044
313	327045
312	327046
311	327047
310	327048
309	327049
309	327050
309	327051
309	327052
310	327053
310	327054
311	327055
313	327056
313	327057
314	327058
314	327059
314	327060
313	327061
313	327062
312	327063
310	327064
310	327065
309	327066
309	327067
309	327068
310	327069
310	327070
311	327071
312	327072
313	327073
314	327074
315	327075
315	327076
315	327077
314	327078
313	327079
313	327080
312	327081
311	327083
311	327084
310	327085
311	327086
311	327087
312	327088
313	327089
314	327090
315	327091
316	327092
316	327092
316	327093
316	327094
316	327095
315	327096
314	327097
313	327098
312	327099
312	327100
312	327101
312	327102
313	327103
314	327104
315	327105
316	327106
317	327107
318	327108
318	327109
318	327110
317	327111
316	327112
316	327113
315	327114
313	327115
313	327116
313	327117
313	327118
314	327119
314	327120
315	327121
316	327122
317	327123
318	327124
318	327126
318	327127
317	327128
317	327129
316	327130
315	327131
314	327132
313	327133
312	327134
312	327135
312	327136
313	327137
314	327138
314	327139
315	327140
317	327141
316	327142
316	327143
316	327144
315	327145
314	327146
313	327147
312	327148
311	327149
310	327149
310	327150
310	327151
310	327152
310	327153
311	327154
312	327155
313	327156
313	327157
313	327158
313	327159
313	327160
312	327161
311	327162
310	327163
309	327164
308	327165
308	327166
308	327168
308	327169
308	327170
309	327171
310	327172
310	327173
311	327174
312	327175
312	327176
312	327177
311	327178
310	327179
309	327180
308	327181
308	327182
307	327183
306	327184
306	327185
307	327186
307	327187
308	327188
309	327189
310	327190
311	327191
311	327192
311	327193
311	327194
310	327195
309	327196
308	327197
308	327198
307	327199
306	327200
306	327201
306	327202
307	327203
307	327204
308	327205
309	327205
310	327206
310	327207
311	327208
310	327209
309	327211
308	327212
307	327213
306	327214
304	327215
303	327216
302	327217
302	327218
301	327219
302	327220
302	327221
302	327222
302	327223
303	327224
303	327225
302	327226
302	327227
301	327228
300	327229
300	327230
299	327231
299	327232
299	327233
299	327234
301	327235
302	327236
305	327237
307	327238
310	327239
314	327240
317	327241
319	327242
322	327243
325	327244
327	327245
330	327246
332	327247
335	327248
338	327249
342	327250
345	327251
349	327252
353	327254
358	327255
362	327256
366	327257
370	327258
374	327258
376	327259
378	327260
379	327261
380	327262
380	327263
381	327264
380	327265
379	327266
379	327267
378	327268
377	327269
377	327270
377	327271
377	327272
376	327273
376	327274
375	327275
373	327276
372	327277
370	327278
367	327279
365	327280
362	327281
359	327282
357	327283
355	327284
354	327285
352	327286
351	327287
350	327288
349	327289
348	327290
347	327291
346	327292
344	327293
343	327294
341	327296
338	327297
337	327298
334	327299
333	327300
331	327301
330	327302
329	327303
329	327304
329	327305
329	327306
329	327307
329	327308
329	327309
328	327309
327	327310
326	327311
325	327312
323	327313
321	327314
320	327315
319	327316
317	327317
317	327318
317	327319
317	327320
317	327321
318	327322
318	327323
318	327324
318	327325
318	327326
317	327327
316	327328
315	327329
314	327330
312	327331
311	327332
310	327333
309	327334
309	327335
309	327336
310	327337
310	327339
311	327340
312	327341
313	327342
312	327343
311	327344
311	327345
310	327346
309	327347
308	327348
307	327349
305	327350
305	327351
304	327352
305	327353
306	327354
306	327355
307	327356
308	327357
308	327358
308	327359
309	327360
308	327361
308	327362
307	327363
306	327364
304	327364
303	327365
303	327366
303	327367
303	327368
303	327369
304	327370
305	327371
306	327372
306	327373
307	327374
307	327375
307	327376
307	327377
306	327378
305	327379
304	327380
303	327382
302	327383
302	327384
302	327385
302	327386
303	327387
304	327388
305	327389
305	327390
306	327391
307	327392
307	327393
307	327394
307	327395
306	327396
305	327397
304	327398
303	327399
303	327400
303	327401
303	327402
303	327403
304	327404
305	327405
306	327406
307	327407
308	327408
308	327409
308	327410
308	327411
307	327412
307	327413
306	327414
305	327415
305	327416
304	327416
304	327417
304	327418
305	327419
306	327420
307	327421
308	327422
309	327424
310	327425
310	327426
310	327427
310	327428
310	327429
309	327430
308	327431
307	327432
307	327433
306	327434
307	327435
307	327436
308	327437
309	327438
310	327439
311	327440
313	327441
313	327442
313	327443
313	327444
312	327445
312	327446
311	327447
310	327448
310	327449
309	327450
309	327451
310	327452
310	327453
311	327454
312	327455
314	327456
315	327457
316	327458
316	327459
317	327460
316	327461
316	327462
315	327463
314	327464
314	327465
313	327467
313	327468
313	327469
314	327470
314	327471
316	327472
317	327472
318	327473
319	327474
320	327475
321	327476
321	327477
321	327478
320	327479
320	327480
319	327481
318	327482
318	327483
318	327484
319	327485
320	327486
321	327487
322	327488
323	327489
324	327490
326	327491
326	327492
327	327493
327	327494
327	327495
326	327496
326	327497
325	327498
325	327499
325	327500
325	327501
326	327502
327	327503
328	327504
329	327505
331	327506
332	327507
333	327508
334	327510
334	327511
334	327512
334	327513
334	327514
333	327515
333	327516
333	327517
332	327518
333	327519
334	327520
335	327521
336	327522
338	327523
339	327524
340	327525
341	327526
342	327526
341	327527
342	327528
341	327529
341	327530
340	327531
340	327532
340	327533
340	327534
340	327535
341	327536
342	327537
343	327538
344	327539
347	327540
348	327541
347	327542
347	327543
347	327544
346	327545
346	327546
345	327547
344	327548
344	327549
343	327550
343	327552
343	327553
344	327554
345	327555
346	327556
346	327557
347	327558
347	327559
347	327560
347	327561
346	327562
345	327563
344	327564
343	327565
341	327566
340	327567
339	327568
339	327569
339	327570
339	327571
339	327572
340	327573
340	327574
340	327575
340	327576
339	327577
338	327577
336	327578
335	327579
333	327580
331	327581
330	327582
328	327583
327	327584
326	327585
326	327586
326	327587
326	327588
326	327589
326	327590
326	327591
325	327592
324	327593
322	327595
321	327596
319	327597
317	327598
315	327599
314	327600
312	327601
311	327602
311	327603
310	327604
310	327605
311	327606
310	327607
310	327608
310	327609
309	327610
308	327611
307	327612
305	327613
304	327614
302	327615
300	327616
299	327617
298	327618
297	327619
296	327620
297	327621
297	327622
297	327623
297	327624
297	327625
297	327626
297	327627
295	327628
294	327629
293	327630
292	327631
290	327631
289	327632
288	327633
287	327634
287	327635
287	327636
287	327638
288	327639
288	327640
290	327641
290	327642
289	327643
288	327644
287	327645
286	327646
285	327647
284	327648
283	327649
282	327650
281	327651
281	327652
281	327653
282	327654
282	327655
283	327656
284	327657
284	327658
284	327659
284	327660
284	327661
283	327662
282	327663
281	327664
280	327665
279	327666
278	327667
278	327668
278	327669
279	327670
279	327671
280	327672
281	327673
282	327674
282	327675
283	327676
282	327677
282	327678
281	327680
281	327681
279	327682
279	327683
278	327684
277	327685
277	327686
278	327687
279	327687
279	327688
280	327689
281	327690
282	327691
283	327692
283	327693
283	327694
282	327695
282	327696
281	327697
280	327698
279	327699
279	327700
279	327701
279	327702
279	327703
280	327704
281	327705
282	327706
283	327707
284	327708
284	327709
285	327710
284	327711
284	327712
283	327713
283	327714
282	327715
281	327716
281	327717
280	327718
281	327719
282	327720
282	327721
283	327723
285	327724
286	327725
286	327726
286	327727
287	327728
286	327729
286	327730
285	327731
285	327732
283	327733
283	327734
283	327735
283	327736
283	327737
284	327738
285	327738
286	327739
287	327740
289	327741
289	327742
289	327743
289	327744
288	327745
287	327746
287	327747
286	327748
285	327749
285	327750
285	327751
285	327752
286	327753
287	327754
288	327755
289	327756
290	327757
291	327758
291	327759
291	327760
291	327761
290	327762
290	327763
289	327764
288	327766
287	327767
287	327768
287	327769
288	327770
288	327771
290	327772
290	327773
291	327774
292	327775
293	327776
293	327777
293	327778
293	327779
292	327780
291	327781
291	327782
290	327783
289	327784
289	327785
289	327786
290	327787
291	327788
292	327789
293	327789
294	327790
295	327791
295	327792
295	327793
295	327794
295	327795
294	327796
293	327797
292	327798
292	327799
291	327800
291	327801
292	327802
292	327803
293	327804
294	327805
295	327806
296	327808
297	327809
297	327810
297	327811
297	327812
296	327813
295	327814
294	327815
294	327816
293	327817
293	327818
293	327819
294	327820
294	327821
295	327822
296	327823
297	327824
298	327825
299	327826
299	327827
298	327828
298	327829
298	327830
297	327831
296	327832
295	327833
295	327834
295	327835
295	327836
295	327837
296	327838
297	327839
298	327840
299	327841
301	327841
300	327842
301	327843
300	327844
300	327845
299	327846
298	327847
297	327848
297	327849
296	327851
296	327852
296	327853
297	327854
298	327855
299	327856
300	327857
301	327858
301	327859
302	327860
302	327861
301	327862
301	327863
300	327864
299	327865
298	327866
297	327867
297	327868
297	327869
298	327870
298	327871
299	327872
301	327873
302	327874
302	327875
303	327876
303	327877
303	327878
302	327879
302	327880
301	327881
300	327882
299	327883
299	327884
298	327885
299	327886
300	327887
300	327888
301	327889
302	327890
303	327891
304	327892
304	327892
304	327894
304	327895
303	327896
303	327897
302	327898
301	327899
300	327900
300	327901
300	327902
300	327903
301	327904
302	327905
303	327906
303	327907
305	327908
305	327909
305	327910
305	327911
305	327912
304	327913
303	327914
302	327915
302	327916
301	327917
301	327918
301	327919
301	327920
302	327921
303	327922
304	327923
305	327924
306	327925
306	327926
306	327927
306	327928
305	327929
305	327930
304	327931
303	327932
302	327933
301	327934
302	327936
302	327937
302	327938
303	327939
304	327940
305	327941
308	327942
308	327943
307	327944
307	327944
307	327945
306	327946
305	327947
304	327948
304	327949
303	327950
302	327951
303	327952
303	327953
304	327954
305	327955
306	327956
306	327957
307	327958
308	327959
308	327960
308	327961
307	327962
307	327963
306	327964
305	327965
304	327966
303	327967
303	327968
304	327969
304	327970
305	327971
306	327972
307	327973
307	327974
308	327975
309	327976
309	327977
308	327979
308	327980
307	327981
306	327982
305	327983
304	327984
304	327985
304	327986
304	327987
305	327988
305	327989
307	327990
307	327991
308	327992
309	327993
310	327994
309	327995
309	327995
308	327996
307	327997
306	327998
305	327999
305	328000
304	328001
304	328002
305	328003
305	328004
307	328005
308	328006
308	328007
309	328008
310	328009
310	328010
310	328011
309	328012
308	328013
307	328014
307	328015
306	328016
305	328017
305	328018
305	328019
306	328020
307	328022
308	328023
309	328024
309	328025
310	328026
311	328027
310	328028
310	328029
309	328030
309	328031
308	328032
307	328033
306	328034
306	328035
306	328036
306	328037
307	328038
308	328039
309	328040
310	328041
311	328042
311	328043
311	328044
311	328045
310	328046
310	328047
309	328047
308	328048
307	328049
306	328050
306	328051
306	328052
307	328053
308	328054
308	328055
309	328056
310	328057
311	328058
311	328059
311	328060
311	328061
311	328062
310	328064
309	328065
308	328066
307	328067
307	328068
307	328069
307	328070
308	328071
308	328072
309	328073
310	328074
311	328075
312	328076
312	328077
312	328078
312	328079
311	328080
310	328081
309	328082
308	328083
307	328084
307	328085
307	328086
307	328087
308	328088
309	328089
310	328090
311	328091
312	328092
312	328093
312	328094
312	328095
312	328096
311	328097
310	328098
309	328099
308	328099
307	328100
307	328101
308	328102
308	328103
308	328104
310	328105
310	328107
312	328108
312	328109
313	328110
312	328111
312	328112
311	328113
311	328114
309	328115
309	328116
308	328117
307	328118
307	328119
308	328120
308	328121
309	328122
310	328123
311	328124
312	328125
313	328126
313	328127
313	328128
312	328129
312	328130
311	328131
310	328132
309	328133
308	328134
308	328135
308	328136
309	328137
309	328138
310	328139
311	328140
312	328141
314	328142
313	328143
313	328144
313	328145
312	328146
311	328147
310	328148
309	328150
309	328151
308	328152
308	328152
308	328153
309	328154
310	328155
310	328156
311	328157
312	328158
313	328159
313	328160
313	328161
312	328162
312	328163
311	328164
310	328165
309	328166
308	328167
308	328168
308	328169
308	328170
309	328171
310	328172
311	328173
312	328174
313	328175
313	328176
313	328177
313	328178
312	328179
312	328180
311	328181
310	328182
309	328183
309	328184
309	328185
308	328186
309	328187
310	328188
311	328189
311	328190
312	328192
313	328193
313	328194
313	328195
313	328196
312	328197
312	328198
311	328199
310	328200
309	328201
309	328202
309	328203
309	328204
309	328204
311	328205
312	328206
312	328207
314	328208
314	328209
314	328210
314	328211
314	328212
313	328213
313	328214
312	328215
311	328216
310	328217
310	328218
310	328219
311	328220
311	328221
312	328222
313	328223
315	328224
316	328225
316	328226
316	328227
316	328228
316	328229
315	328230
314	328231
313	328232
312	328233
312	328235
312	328236
312	328237
312	328238
313	328239
314	328240
315	328241
316	328242
318	328243
317	328244
317	328245
317	328246
316	328247
315	328248
315	328249
314	328250
313	328251
313	328252
313	328253
313	328254
314	328255
314	328255
315	328256
316	328257
317	328258
317	328259
317	328260
317	328261
317	328262
316	328263
315	328264
314	328265
313	328266
312	328267
311	328268
312	328269
312	328270
312	328271
313	328272
314	328273
314	328274
315	328275
315	328276
315	328278
314	328279
314	328280
313	328281
312	328282
311	328283
310	328284
309	328285
309	328286
309	328287
309	328288
310	328289
311	328290
311	328291
312	328292
313	328293
313	328294
313	328295
312	328296
311	328297
310	328298
309	328299
308	328300
307	328301
307	328302
307	328303
307	328304
308	328305
308	328306
310	328307
310	328307
311	328308
311	328309
311	328310
311	328311
310	328312
310	328313
308	328314
308	328315
307	328316
306	328317
306	328318
306	328320
306	328321
307	328322
308	328323
309	328324
310	328325
311	328326
311	328327
311	328328
310	328329
310	328330
309	328331
308	328332
307	328333
306	328334
306	328335
305	328336
306	328337
306	328338
307	328339
308	328340
309	328341
310	328342
309	328343
309	328344
309	328345
308	328346
306	328347
305	328348
304	328349
302	328350
301	328351
300	328352
300	328353
299	328354
300	328355
300	328356
301	328357
301	328358
302	328358
302	328359
302	328360
302	328361
302	328363
302	328364
301	328365
302	328366
302	328367
303	328368
304	328369
307	328370
309	328371
312	328372
316	328373
320	328374
324	328375
327	328376
331	328377
334	328378
337	328379
341	328380
344	328381
347	328382
349	328383
353	328384
356	328385
359	328386
363	328387
367	328388
371	328389
374	328390
377	328391
380	328392
381	328393
383	328394
384	328395
383	328396
383	328397
382	328398
380	328399
379	328400
377	328401
376	328402
375	328403
374	328404
374	328406
373	328407
372	328408
372	328409
371	328410
370	328410
368	328411
366	328412
364	328413
361	328414
358	328415
355	328416
353	328417
351	328418
349	328419
347	328420
346	328421
345	328422
344	328423
344	328424
343	328425
342	328426
341	328427
340	328428
338	328429
336	328430
334	328431
332	328432
330	328433
329	328434
328	328435
327	328436
326	328437
326	328438
326	328439
326	328440
326	328441
328	328442
326	328443
325	328444
324	328445
323	328446
322	328448
320	328449
319	328450
317	328451
316	328452
315	328453
315	328454
315	328455
315	328456
315	328457
316	328458
316	328459
316	328460
316	328461
316	328462
315	328462
314	328463
312	328464
311	328465
310	328466
308	328467
308	328468
307	328469
307	328470
308	328471
308	328472
309	328473
309	328474
310	328475
311	328476
310	328477
310	328478
309	328479
308	328480
307	328481
306	328482
305	328483
304	328484
303	328485
304	328486
304	328487
304	328488
305	328489
306	328491
306	328492
307	328493
307	328494
307	328495
307	328496
306	328497
305	328498
304	328499
303	328500
303	328501
302	328502
302	328503
302	328504
302	328505
303	328506
304	328507
305	328508
306	328509
306	328510
306	328511
306	328512
306	328513
305	328513
304	328514
303	328515
303	328516
302	328517
301	328518
301	328519
302	328520
303	328521
304	328522
304	328523
305	328524
306	328525
307	328526
307	328527
306	328528
306	328529
305	328530
305	328531
304	328532
303	328534
302	328535
302	328536
303	328537
303	328538
304	328539
305	328540
306	328541
307	328542
309	328543
308	328544
308	328545
308	328546
307	328547
307	328548
306	328549
305	328550
305	328551
304	328552
304	328553
304	328554
305	328555
306	328556
307	328557
308	328558
309	328559
310	328560
310	328561
310	328562
310	328563
309	328564
308	328565
308	328565
307	328566
306	328567
306	328568
306	328569
307	328570
308	328571
309	328572
310	328573
311	328574
312	328576
313	328577
313	328578
313	328579
313	328580
312	328581
312	328582
311	328583
310	328584
310	328585
310	328586
310	328587
311	328588
312	328589
313	328590
314	328591
316	328592
316	328593
317	328594
317	328595
317	328596
316	328597
316	328598
315	328599
315	328600
314	328601
314	328602
314	328603
315	328604
316	328605
317	328606
318	328607
319	328608
320	328609
321	328610
322	328611
322	328612
321	328613
321	328614
321	328615
320	328616
319	328616
319	328617
319	328619
320	328620
321	328621
321	328622
323	328623
324	328624
326	328625
327	328626
328	328627
328	328628
328	328629
328	328630
327	328631
327	328632
327	328633
326	328634
326	328635
327	328636
327	328637
328	328638
330	328639
331	328640
332	328641
334	328642
336	328643
335	328644
335	328645
336	328646
335	328647
335	328648
334	328649
334	328650
334	328651
334	328652
335	328653
335	328654
336	328655
338	328656
339	328657
340	328658
342	328659
343	328660
343	328662
343	328663
343	328664
342	328665
342	328666
341	328667
341	328668
340	328668
341	328669
341	328670
342	328671
343	328672
344	328673
345	328674
346	328675
347	328676
348	328677
348	328678
347	328679
347	328680
346	328681
345	328682
344	328683
343	328684
343	328685
343	328686
343	328687
343	328688
344	328689
345	328690
345	328691
346	328692
346	328693
346	328694
345	328695
344	328696
344	328697
342	328698
341	328699
339	328700
338	328701
337	328702
337	328704
337	328705
337	328706
337	328707
337	328708
337	328709
337	328710
337	328711
336	328712
335	328713
334	328714
332	328715
330	328716
328	328717
327	328718
326	328719
324	328720
324	328720
323	328721
323	328722
323	328723
323	328724
323	328725
323	328726
322	328727
321	328728
320	328729
318	328730
316	328731
314	328732
313	328733
311	328734
309	328735
308	328736
308	328737
308	328738
308	328739
308	328740
308	328741
308	328742
309	328743
306	328744
305	328745
304	328747
302	328748
301	328749
299	328750
297	328751
296	328752
295	328753
294	328754
294	328755
294	328756
295	328757
295	328758
295	328759
295	328760
295	328761
295	328762
294	328763
292	328764
291	328765
290	328766
288	328767
287	328768
286	328769
286	328770
285	328771
286	328771
286	328772
286	328773
287	328774
287	328775
288	328776
288	328777
287	328778
286	328779
285	328780
284	328781
283	328782
282	328783
281	328784
280	328785
280	328786
280	328787
281	328788
282	328790
282	328791
283	328792
283	328793
284	328794
283	328795
283	328796
283	328797
282	328798
281	328799
280	328800
279	328801
278	328802
278	328803
278	328804
278	328805
279	328806
280	328807
281	328808
281	328809
282	328810
282	328811
282	328812
282	328813
281	328814
280	328815
280	328816
279	328817
278	328818
278	328819
278	328820
278	328821
279	328822
280	328822
280	328823
281	328824
282	328825
283	328826
283	328827
283	328828
283	328829
282	328830
281	328832
280	328833
280	328834
279	328835
279	328836
279	328837
279	328838
280	328839
281	328840
282	328841
283	328842
285	328843
284	328844
285	328845
284	328846
284	328847
283	328848
283	328849
282	328850
281	328851
281	328852
281	328853
281	328854
281	328855
283	328856
284	328857
285	328858
286	328859
286	328860
287	328861
287	328862
286	328863
286	328864
285	328865
284	328866
284	328867
283	328868
283	328869
283	328870
283	328871
284	328872
285	328873
286	328875
287	328875
288	328876
289	328877
289	328878
289	328879
289	328880
288	328881
287	328882
286	328883
286	328884
285	328885
285	328886
285	328887
286	328888
287	328889
288	328890
289	328891
290	328892
291	328893
291	328894
291	328895
291	328896
290	328897
290	328898
289	328899
288	328900
288	328901
287	328902
287	328903
288	328904
289	328905
289	328906
290	328907
291	328908
292	328909
293	328910
293	328911
293	328912
293	328913
292	328914
292	328915
291	328916
290	328918
289	328919
289	328920
289	328921
290	328922
291	328923
292	328924
293	328925
294	328926
294	328926
295	328927
295	328928
295	328929
294	328930
294	328931
293	328932
292	328933
291	328934
291	328935
291	328936
291	328937
292	328938
293	328939
294	328940
295	328941
296	328942
298	328943
297	328944
297	328945
297	328946
296	328947
295	328948
295	328949
294	328950
293	328951
293	328952
293	328953
293	328954
294	328955
295	328956
296	328957
297	328958
298	328960
298	328961
299	328962
299	328963
298	328964
297	328965
297	328966
296	328967
295	328968
294	328969
294	328970
294	328971
295	328972
296	328973
297	328974
298	328975
299	328976
300	328977
300	328978
300	328978
300	328979
299	328980
299	328981
298	328982
297	328983
296	328984
296	328985
296	328986
296	328987
297	328988
297	328989
299	328990
299	328991
301	328992
301	328993
302	328994
301	328995
301	328996
301	328997
300	328998
299	328999
298	329000
297	329001
297	329003
297	329004
297	329005
299	329006
299	329007
300	329008
302	329009
303	329010
303	329011
303	329012
303	329013
303	329014
302	329015
301	329016
300	329017
299	329018
298	329019
298	329020
298	329021
299	329022
300	329023
301	329024
302	329025
303	329026
303	329027
304	329028
304	329029
304	329030
303	329030
303	329031
302	329032
301	329033
300	329034
300	329035
300	329036
300	329037
300	329038
301	329039
302	329040
303	329041
307	329042
306	329043
305	329044
305	329046
305	329047
304	329048
303	329049
302	329050
302	329051
301	329052
301	329053
301	329054
301	329055
302	329056
303	329057
304	329058
305	329059
306	329060
306	329061
306	329062
306	329063
305	329064
304	329065
304	329066
303	329067
302	329068
302	329069
302	329070
302	329071
303	329072
303	329073
304	329074
305	329075
306	329076
307	329077
307	329078
307	329079
307	329080
306	329081
305	329081
304	329082
304	329083
303	329084
303	329085
303	329086
303	329088
304	329089
305	329090
305	329091
306	329092
307	329093
308	329094
308	329095
308	329096
307	329097
307	329098
306	329099
305	329100
304	329101
304	329102
303	329103
304	329104
304	329105
305	329106
306	329107
307	329108
308	329109
309	329110
309	329111
309	329112
308	329113
308	329114
307	329115
306	329116
305	329117
305	329118
304	329119
304	329120
305	329121
305	329122
306	329123
307	329124
308	329125
309	329126
309	329127
310	329128
310	329129
309	329131
309	329132
308	329133
307	329133
306	329134
306	329135
305	329136
305	329137
306	329138
306	329139
307	329140
308	329141
309	329142
311	329143
311	329144
310	329145
310	329146
310	329147
309	329148
308	329149
307	329150
306	329151
306	329152
305	329153
306	329154
306	329155
307	329156
308	329157
309	329158
310	329159
311	329160
311	329161
311	329162
310	329163
310	329164
309	329165
308	329166
307	329167
307	329168
306	329169
306	329170
307	329171
307	329172
308	329174
309	329175
310	329176
311	329177
311	329178
312	329179
311	329180
311	329181
310	329182
309	329183
308	329184
308	329185
307	329185
306	329186
306	329187
307	329188
308	329189
309	329190
310	329191
311	329192
312	329193
312	329194
312	329195
312	329196
311	329197
310	329198
309	329199
308	329200
307	329201
307	329202
307	329203
307	329204
308	329205
308	329206
310	329207
311	329208
311	329209
312	329210
312	329211
312	329212
312	329213
311	329214
310	329216
309	329217
308	329218
308	329219
307	329220
308	329221
307	329222
309	329223
309	329224
310	329225
311	329226
312	329227
312	329228
312	329229
313	329230
312	329231
311	329232
310	329233
310	329234
308	329235
308	329236
308	329236
308	329237
308	329238
309	329239
310	329240
311	329241
312	329242
314	329243
313	329244
313	329245
312	329246
312	329247
311	329248
310	329249
309	329250
308	329251
308	329252
308	329253
308	329254
309	329255
310	329256
311	329257
312	329259
312	329260
313	329261
313	329262
313	329263
313	329264
312	329265
311	329266
310	329267
309	329268
309	329269
308	329270
308	329271
309	329272
309	329273
310	329274
311	329275
312	329276
313	329277
313	329278
313	329279
313	329280
312	329281
312	329282
310	329283
310	329284
309	329285
308	329286
308	329287
308	329287
309	329288
310	329289
311	329290
312	329291
313	329292
313	329293
313	329294
313	329295
313	329296
312	329297
311	329298
310	329299
310	329300
309	329302
309	329303
309	329304
309	329305
310	329306
311	329307
312	329308
313	329309
314	329310
314	329311
315	329312
315	329313
314	329314
313	329315
313	329316
312	329317
311	329318
311	329319
310	329320
310	329321
311	329322
312	329323
313	329324
314	329325
315	329326
316	329327
316	329328
317	329329
316	329330
315	329331
315	329332
314	329333
313	329334
313	329335
312	329336
312	329337
312	329338
313	329339
314	329339
314	329340
316	329341
317	329342
318	329344
318	329345
317	329346
317	329347
316	329348
315	329349
314	329350
313	329351
313	329352
312	329353
312	329354
313	329355
314	329356
314	329357
315	329358
316	329359
317	329360
317	329361
318	329362
317	329363
316	329364
315	329365
315	329366
314	329367
312	329368
312	329369
311	329370
311	329371
311	329372
312	329373
313	329374
314	329375
314	329376
314	329377
315	329378
315	329379
314	329380
313	329381
312	329382
311	329383
310	329384
309	329385
309	329387
308	329388
309	329389
309	329390
310	329391
311	329391
311	329392
312	329393
313	329394
313	329395
312	329396
312	329397
311	329398
310	329399
309	329400
308	329401
307	329402
307	329403
307	329404
307	329405
308	329406
309	329407
310	329408
310	329409
311	329410
311	329411
311	329412
311	329413
310	329414
309	329415
308	329416
307	329417
306	329418
306	329419
305	329420
306	329421
306	329422
307	329423
308	329424
309	329425
310	329426
310	329427
310	329428
310	329430
310	329431
309	329432
308	329433
307	329434
306	329435
305	329436
305	329437
305	329438
305	329439
306	329440
307	329441
307	329442
308	329443
308	329443
310	329444
308	329445
308	329446
307	329447
305	329448
304	329449
302	329450
301	329451
299	329452
298	329453
298	329454
298	329455
298	329456
299	329457
300	329458
300	329459
301	329460
302	329461
302	329462
302	329463
302	329464
302	329465
302	329466
303	329467
304	329468
305	329469
307	329470
309	329472
312	329473
316	329474
320	329475
324	329476
328	329477
332	329478
335	329479
338	329480
342	329481
345	329482
347	329483
350	329484
353	329485
355	329486
359	329487
362	329488
365	329489
368	329490
371	329491
374	329492
376	329493
378	329494
380	329494
380	329495
379	329496
379	329497
378	329498
376	329499
375	329500
373	329501
371	329502
370	329503
369	329504
368	329505
368	329506
368	329507
367	329508
366	329509
365	329510
364	329511
362	329512
360	329513
357	329515
355	329516
352	329517
350	329518
348	329519
345	329520
344	329521
342	329522
341	329523
341	329524
340	329525
340	329526
339	329527
338	329528
337	329529
336	329530
334	329531
333	329532
331	329533
329	329534
328	329535
326	329536
325	329537
324	329538
324	329539
324	329540
324	329541
325	329542
325	329543
326	329544
324	329545
324	329546
322	329546
321	329547
320	329548
319	329549
317	329550
316	329551
314	329552
314	329553
314	329554
314	329555
314	329556
315	329558
315	329559
315	329560
315	329561
315	329562
315	329563
314	329564
313	329565
312	329566
310	329567
309	329568
308	329569
307	329570
307	329571
307	329572
308	329573
308	329574
309	329575
310	329576
310	329577
310	329578
311	329579
310	329580
309	329581
308	329582
307	329583
306	329584
305	329585
304	329586
304	329587
304	329588
304	329589
305	329590
305	329591
307	329592
307	329593
308	329594
308	329595
308	329596
308	329597
307	329597
306	329598
305	329600
304	329601
303	329602
303	329603
303	329604
303	329605
304	329606
304	329607
305	329608
306	329609
307	329610
308	329611
308	329612
308	329613
307	329614
306	329615
306	329616
305	329617
304	329618
303	329619
303	329620
303	329621
303	329622
304	329623
305	329624
306	329625
307	329626
308	329627
308	329628
308	329629
308	329630
308	329631
307	329632
306	329633
305	329634
304	329635
304	329636
304	329637
304	329638
305	329639
306	329640
307	329641
308	329643
309	329644
311	329645
310	329646
310	329647
310	329648
309	329649
308	329650
308	329650
307	329651
306	329652
306	329653
306	329654
306	329655
307	329656
308	329657
309	329658
310	329659
311	329660
312	329661
312	329662
312	329663
311	329664
311	329665
310	329666
310	329667
309	329668
308	329669
308	329670
309	329671
309	329672
310	329673
311	329674
312	329675
313	329676
314	329677
315	329678
315	329679
315	329680
314	329681
314	329682
313	329683
312	329684
312	329686
311	329687
312	329688
312	329689
313	329690
314	329691
315	329692
316	329693
317	329694
318	329695
318	329696
319	329697
318	329698
318	329699
317	329700
317	329701
316	329701
316	329702
316	329703
316	329704
317	329705
317	329706
319	329707
320	329708
321	329709
322	329710
323	329711
323	329712
323	329713
323	329714
323	329715
322	329716
322	329717
321	329718
321	329719
321	329720
322	329721
323	329722
324	329723
325	329724
326	329725
328	329726
329	329728
330	329729
330	329730
330	329731
330	329732
329	329733
329	329734
329	329735
328	329736
328	329737
329	329738
329	329739
331	329740
332	329741
333	329742
334	329743
335	329744
338	329745
337	329746
337	329747
337	329748
337	329749
336	329750
336	329751
336	329752
335	329753
335	329753
336	329754
337	329755
338	329756
339	329757
341	329758
342	329759
343	329760
344	329761
344	329762
344	329763
344	329764
343	329765
343	329766
342	329767
342	329768
341	329769
342	329771
342	329772
343	329773
344	329774
345	329775
346	329776
347	329777
348	329778
348	329779
348	329780
348	329781
347	329782
346	329783
345	329784
344	329785
344	329786
343	329787
343	329788
343	329789
344	329790
344	329791
345	329792
345	329793
346	329794
346	329795
346	329796
345	329797
344	329798
343	329799
341	329800
340	329801
339	329802
337	329803
336	329804
336	329804
336	329805
336	329806
336	329807
336	329808
336	329809
336	329810
335	329811
335	329812
333	329814
332	329815
330	329816
328	329817
327	329818
325	329819
324	329820
323	329821
322	329822
322	329823
321	329824
321	329825
321	329826
321	329827
321	329828
320	329829
319	329830
317	329831
316	329832
314	329833
312	329834
311	329835
309	329836
307	329837
307	329838
306	329839
306	329840
306	329841
306	329842
306	329843
307	329844
306	329845
305	329846
304	329847
303	329848
301	329849
300	329850
298	329851
296	329852
295	329853
294	329854
294	329856
293	329857
294	329857
294	329858
295	329859
295	329860
295	329861
294	329862
294	329863
293	329864
292	329865
291	329866
289	329867
288	329868
287	329869
286	329870
286	329871
286	329872
286	329873
286	329874
287	329875
287	329876
288	329877
288	329878
288	329879
287	329880
287	329881
285	329882
285	329883
283	329884
282	329885
281	329886
281	329887
281	329888
281	329889
282	329890
283	329891
283	329892
284	329893
285	329894
285	329895
285	329896
284	329897
283	329899
282	329900
282	329901
280	329902
280	329903
279	329904
279	329905
279	329906
280	329907
280	329908
281	329908
282	329909
283	329910
283	329911
284	329912
284	329913
283	329914
283	329915
282	329916
281	329917
280	329918
279	329919
279	329920
279	329921
280	329922
280	329923
281	329924
282	329925
283	329926
284	329927
284	329928
285	329929
284	329930
284	329931
283	329932
282	329933
281	329934
281	329935
280	329936
280	329937
280	329938
281	329939
282	329940
283	329942
284	329943
285	329944
287	329945
287	329946
286	329947
286	329948
286	329949
285	329950
284	329951
283	329952
283	329953
282	329954
282	329955
283	329956
283	329957
284	329958
285	329959
286	329959
287	329960
288	329961
288	329962
288	329963
288	329964
287	329965
287	329966
286	329967
285	329968
284	329969
284	329970
285	329971
285	329972
286	329973
287	329974
288	329975
289	329976
289	329977
290	329978
290	329979
290	329980
290	329981
289	329982
289	329984
287	329985
287	329986
286	329987
286	329988
287	329989
288	329990
288	329991
289	329992
290	329993
291	329994
292	329995
292	329996
293	329997
292	329998
292	329999
291	330000
290	330001
289	330002
289	330003
288	330004
289	330005
289	330006
290	330007
291	330008
292	330009
293	330010
294	330011
294	330011
295	330012
295	330013
294	330014
293	330015
293	330016
292	330017
291	330018
290	330019
290	330020
290	330021
291	330022
292	330023
293	330024
294	330025
295	330027
296	330028
296	330029
296	330030
296	330031
295	330032
295	330033
294	330034
293	330035
292	330036
292	330037
292	330038
292	330039
293	330040
294	330041
295	330042
296	330043
297	330044
299	330045
298	330046
298	330047
298	330048
297	330049
296	330050
296	330051
295	330052
294	330053
294	330054
294	330055
294	330056
295	330057
296	330058
297	330059
298	330060
299	330061
300	330062
300	330062
300	330063
299	330064
298	330065
298	330066
297	330067
296	330068
295	330070
295	330071
296	330072
296	330073
297	330074
298	330075
299	330076
300	330077
301	330078
301	330079
301	330080
301	330081
300	330082
299	330083
299	330084
298	330085
297	330086
296	330087
297	330088
297	330089
297	330090
299	330091
300	330092
301	330093
302	330094
302	330095
303	330096
302	330097
302	330098
301	330099
300	330100
300	330101
299	330102
298	330103
298	330104
298	330105
298	330106
300	330107
300	330108
301	330109
302	330110
303	330112
304	330113
304	330114
303	330114
303	330115
302	330116
301	330117
301	330118
300	330119
299	330120
299	330121
299	330122
300	330123
301	330124
302	330125
303	330126
304	330127
304	330128
305	330129
305	330130
304	330131
304	330132
303	330133
302	330134
301	330135
301	330136
300	330137
301	330138
301	330139
302	330140
302	330141
303	330142
304	330143
308	330144
307	330145
306	330146
306	330147
305	330148
305	330149
304	330150
303	330151
302	330152
302	330153
301	330155
302	330156
302	330157
303	330158
304	330159
305	330160
306	330161
306	330162
307	330163
307	330164
306	330165
306	330166
305	330166
304	330167
303	330168
303	330169
302	330170
302	330171
302	330172
303	330173
304	330174
305	330175
306	330176
307	330177
307	330178
308	330179
308	330180
307	330181
307	330182
306	330183
305	330184
304	330185
303	330186
303	330187
303	330188
303	330189
304	330190
305	330191
306	330192
307	330193
308	330194
309	330195
308	330196
308	330198
308	330199
307	330200
306	330201
305	330202
304	330203
304	330204
304	330205
304	330206
304	330207
305	330208
306	330209
307	330210
308	330211
309	330212
309	330213
309	330214
309	330215
309	330216
307	330217
307	330217
306	330218
305	330219
305	330220
305	330221
305	330222
305	330223
306	330224
308	330225
308	330226
309	330227
310	330228
310	330229
310	330230
309	330231
309	330232
308	330233
307	330234
306	330235
305	330236
305	330237
305	330238
306	330240
306	330241
307	330242
308	330243
309	330244
310	330245
312	330246
311	330247
310	330248
310	330249
309	330250
308	330251
307	330252
307	330253
306	330254
306	330255
306	330256
307	330257
308	330258
308	330259
309	330260
310	330261
311	330262
311	330263
311	330264
311	330265
310	330266
309	330267
308	330268
307	330268
307	330269
306	330270
306	330271
307	330272
307	330273
308	330274
309	330275
310	330276
311	330277
312	330278
312	330279
311	330280
311	330281
310	330283
309	330284
308	330285
308	330286
307	330287
306	330288
307	330289
307	330290
308	330291
309	330292
310	330293
311	330294
312	330295
312	330296
312	330297
312	330298
311	330299
310	330300
309	330301
308	330302
307	330303
307	330304
307	330305
307	330306
308	330307
309	330308
310	330309
311	330310
312	330311
312	330312
313	330313
312	330314
312	330315
311	330316
310	330317
309	330318
309	330319
308	330320
307	330320
308	330321
308	330322
309	330323
310	330324
311	330326
312	330327
312	330328
313	330329
313	330330
313	330331
312	330332
311	330333
310	330334
309	330335
309	330336
308	330337
308	330338
308	330339
309	330340
309	330341
310	330342
311	330343
312	330344
314	330345
314	330346
313	330347
312	330348
312	330349
311	330350
310	330351
309	330352
309	330353
308	330354
308	330355
309	330356
309	330357
310	330358
311	330359
312	330360
313	330361
313	330362
314	330363
313	330364
313	330365
312	330366
311	330368
310	330369
309	330370
309	330371
308	330372
308	330372
309	330373
310	330374
311	330375
312	330376
313	330377
313	330378
314	330379
313	330380
314	330381
313	330382
312	330383
311	330384
310	330385
309	330386
309	330387
309	330388
309	330389
309	330390
310	330391
311	330392
312	330393
313	330394
314	330395
314	330396
314	330397
314	330398
312	330399
312	330400
311	330401
310	330402
310	330403
309	330404
309	330405
310	330406
311	330407
312	330408
313	330409
314	330411
315	330412
315	330413
315	330414
315	330415
315	330416
314	330417
313	330418
312	330419
311	330420
311	330421
311	330422
311	330423
312	330424
313	330424
314	330425
315	330426
316	330427
316	330428
317	330429
317	330430
317	330431
316	330432
315	330433
314	330434
314	330435
313	330436
312	330437
312	330438
312	330439
313	330440
314	330441
315	330442
316	330443
317	330444
319	330445
318	330446
318	330447
317	330448
317	330449
316	330450
315	330451
314	330452
313	330454
313	330455
313	330456
313	330457
314	330458
315	330459
316	330460
317	330461
317	330462
318	330463
318	330464
317	330465
316	330466
316	330467
314	330468
314	330469
312	330470
312	330471
311	330472
311	330473
312	330474
312	330475
313	330475
314	330476
314	330477
315	330478
315	330479
315	330480
314	330481
313	330482
312	330483
311	330484
310	330485
309	330486
309	330487
309	330488
309	330489
309	330490
310	330491
311	330492
312	330493
312	330494
313	330496
313	330497
312	330498
312	330499
311	330500
310	330501
309	330502
308	330503
307	330504
307	330505
307	330506
307	330507
308	330508
309	330509
310	330510
311	330511
311	330512
311	330513
311	330514
311	330515
310	330516
310	330517
308	330518
307	330519
307	330520
306	330521
306	330522
306	330523
307	330524
308	330525
308	330526
310	330526
310	330527
311	330528
311	330529
311	330530
310	330531
309	330532
309	330533
308	330534
307	330535
306	330536
305	330537
305	330539
305	330540
306	330541
306	330542
307	330543
308	330544
308	330545
309	330546
307	330547
306	330548
305	330549
304	330550
302	330551
301	330552
299	330553
298	330554
297	330555
297	330556
297	330557
298	330558
299	330559
300	330560
301	330561
303	330562
304	330563
304	330564
305	330565
305	330566
306	330567
307	330568
308	330569
310	330570
312	330571
315	330572
318	330573
322	330574
326	330575
330	330576
334	330577
339	330578
343	330578
347	330579
351	330580
354	330582
357	330583
360	330584
362	330585
365	330586
367	330587
370	330588
372	330589
375	330590
377	330591
379	330592
381	330593
382	330594
383	330595
383	330596
383	330597
382	330598
380	330599
378	330600
377	330601
375	330602
373	330603
371	330604
370	330605
368	330606
367	330607
366	330608
366	330609
365	330610
364	330611
363	330612
361	330613
359	330614
357	330615
354	330616
352	330617
349	330618
347	330619
344	330620
342	330621
341	330622
340	330624
339	330625
338	330626
338	330627
337	330628
337	330629
337	330630
336	330630
334	330631
333	330632
331	330633
329	330634
328	330635
326	330636
325	330637
324	330638
323	330639
323	330640
323	330641
323	330642
323	330643
323	330644
324	330645
323	330646
322	330647
321	330648
320	330649
319	330650
317	330651
316	330652
315	330653
313	330654
313	330655
313	330656
313	330657
313	330658
314	330659
314	330660
314	330661
315	330662
315	330663
314	330664
313	330665
312	330667
311	330668
309	330669
309	330670
307	330671
307	330672
307	330673
307	330674
307	330675
308	330676
309	330677
309	330678
310	330679
310	330680
310	330681
309	330681
308	330682
308	330683
306	330684
305	330685
304	330686
303	330687
303	330688
303	330689
304	330690
304	330691
305	330692
306	330693
307	330694
307	330695
307	330696
307	330697
307	330698
306	330699
305	330700
304	330701
303	330702
302	330703
302	330704
302	330705
302	330706
303	330707
304	330708
305	330710
306	330711
306	330712
307	330713
308	330714
307	330715
306	330716
306	330717
305	330718
304	330719
303	330720
302	330721
302	330722
302	330723
303	330724
304	330725
304	330726
305	330727
307	330728
307	330729
308	330730
308	330731
308	330732
307	330733
306	330733
305	330734
304	330735
304	330736
303	330737
303	330738
303	330739
304	330740
305	330741
306	330742
307	330743
308	330744
310	330745
309	330746
309	330747
309	330748
308	330749
308	330750
307	330752
306	330753
305	330754
305	330755
305	330756
306	330757
306	330758
308	330759
309	330760
310	330761
311	330762
311	330763
312	330764
312	330765
311	330766
310	330767
310	330768
309	330769
308	330770
308	330771
308	330772
308	330773
309	330774
310	330775
311	330776
312	330777
313	330778
314	330779
315	330780
315	330781
314	330782
314	330783
313	330784
313	330784
312	330785
311	330786
311	330787
311	330788
312	330789
313	330790
314	330791
315	330792
316	330793
317	330795
318	330796
319	330797
319	330798
319	330799
318	330800
317	330801
317	330802
316	330803
316	330804
316	330805
316	330806
317	330807
318	330808
319	330809
320	330810
321	330811
323	330812
324	330813
324	330814
324	330815
324	330816
323	330817
322	330818
322	330819
322	330820
321	330821
322	330822
322	330823
323	330824
324	330825
326	330826
327	330827
328	330828
329	330829
330	330830
330	330831
330	330832
330	330833
330	330834
329	330835
329	330835
329	330836
329	330838
329	330839
330	330840
331	330841
332	330842
334	330843
335	330844
336	330845
338	330846
338	330847
338	330848
338	330849
338	330850
337	330851
337	330852
337	330853
337	330854
336	330855
337	330856
338	330857
339	330858
340	330859
342	330860
343	330861
343	330862
344	330863
345	330864
345	330865
344	330866
344	330867
343	330868
343	330869
342	330870
342	330871
342	330872
343	330873
343	330874
344	330875
345	330876
346	330877
347	330878
348	330880
348	330881
348	330882
347	330883
347	330884
346	330885
345	330886
344	330887
343	330888
343	330888
342	330889
342	330890
343	330891
343	330892
344	330893
344	330894
345	330895
344	330896
344	330897
343	330898
342	330899
341	330900
339	330901
338	330902
336	330903
335	330904
334	330905
334	330906
334	330907
333	330908
334	330909
334	330910
334	330911
333	330912
333	330913
332	330914
331	330915
329	330916
327	330917
326	330918
324	330919
322	330920
321	330921
320	330923
319	330924
319	330925
319	330926
319	330927
319	330928
318	330929
318	330930
317	330931
316	330932
315	330933
313	330934
311	330935
309	330936
308	330937
306	330938
305	330939
304	330939
303	330940
303	330941
303	330942
304	330943
304	330944
304	330945
305	330946
302	330947
301	330948
300	330949
298	330950
297	330951
295	330952
294	330953
292	330954
292	330955
291	330956
291	330957
292	330958
292	330959
292	330960
292	330961
293	330962
292	330963
292	330964
291	330966
289	330967
288	330968
287	330969
286	330970
285	330971
284	330972
284	330973
284	330974
284	330975
285	330976
285	330977
286	330978
286	330979
286	330980
286	330981
286	330982
285	330983
284	330984
283	330985
282	330986
281	330987
280	330988
279	330989
280	330990
280	330991
280	330991
281	330992
282	330993
283	330994
283	330995
284	330996
283	330997
283	330998
282	330999
281	331000
280	331001
279	331002
278	331003
278	331004
278	331005
278	331006
279	331008
279	331009
281	331010
281	331011
282	331012
283	331013
283	331014
283	331015
282	331016
281	331017
280	331018
279	331019
279	331020
278	331021
278	331022
278	331023
279	331024
279	331025
280	331026
281	331027
282	331028
283	331029
284	331030
284	331031
284	331032
283	331033
282	331034
281	331035
281	331036
280	331037
280	331038
279	331039
280	331040
280	331041
281	331042
282	331042
284	331043
284	331044
287	331045
286	331046
286	331047
285	331048
285	331049
284	331051
283	331052
282	331053
282	331054
281	331055
281	331056
282	331057
283	331058
284	331059
285	331060
286	331061
287	331062
287	331063
288	331064
288	331065
287	331066
287	331067
286	331068
285	331069
285	331070
285	331071
284	331072
284	331073
285	331074
286	331075
287	331076
288	331077
289	331078
289	331079
290	331080
290	331081
290	331082
290	331083
289	331084
288	331085
287	331086
286	331087
286	331088
286	331089
287	331090
287	331091
288	331092
289	331094
290	331094
291	331095
292	331096
292	331097
293	331098
292	331099
291	331100
291	331101
290	331102
289	331103
289	331104
289	331105
289	331106
289	331107
290	331108
291	331109
292	331110
293	331111
294	331112
294	331113
295	331114
294	331115
294	331116
293	331117
293	331118
292	331119
291	331120
291	331121
290	331122
291	331123
291	331124
292	331125
293	331126
294	331127
295	331128
296	331129
296	331130
296	331131
296	331132
296	331133
295	331134
294	331136
293	331137
292	331138
292	331139
292	331140
293	331141
293	331142
294	331143
295	331144
296	331145
297	331146
299	331146
298	331147
298	331148
298	331149
297	331150
296	331151
295	331152
295	331153
294	331154
294	331155
294	331156
295	331157
295	331158
296	331159
298	331160
298	331161
299	331162
300	331163
300	331164
299	331165
299	331166
298	331167
297	331168
297	331169
296	331170
295	331171
295	331172
296	331173
296	331174
297	331175
298	331176
299	331177
300	331179
301	331180
301	331181
301	331182
300	331183
300	331184
299	331185
298	331186
297	331187
297	331188
297	331189
297	331190
297	331191
298	331192
298	331193
300	331194
301	331195
302	331196
302	331197
302	331197
302	331198
302	331199
301	331200
300	331201
300	331202
299	331203
298	331204
298	331205
298	331206
299	331207
299	331208
301	331209
302	331210
302	331211
303	331212
304	331213
303	331214
303	331215
303	331216
302	331217
301	331218
300	331219
300	331220
299	331222
299	331223
299	331224
300	331225
301	331226
302	331227
303	331228
304	331229
305	331230
305	331231
304	331232
304	331233
304	331234
303	331235
302	331236
301	331237
300	331238
300	331239
300	331240
301	331241
302	331242
303	331243
304	331244
304	331245
304	331246
307	331247
306	331248
306	331249
305	331249
305	331250
304	331251
303	331252
302	331253
302	331254
301	331255
302	331256
302	331257
303	331258
304	331259
305	331260
306	331261
306	331262
307	331264
307	331265
307	331266
306	331267
305	331268
304	331269
304	331270
303	331271
302	331272
302	331273
303	331274
303	331275
304	331276
305	331277
306	331278
307	331279
308	331280
308	331281
308	331282
307	331283
307	331284
306	331285
305	331286
304	331287
303	331288
303	331289
303	331290
304	331291
305	331292
305	331293
306	331294
307	331295
308	331296
308	331297
309	331298
308	331299
308	331300
307	331300
306	331301
305	331302
304	331303
304	331304
304	331305
304	331307
305	331308
306	331309
307	331310
308	331311
308	331312
309	331313
309	331314
309	331315
309	331316
308	331317
307	331318
307	331319
305	331320
305	331321
305	331322
304	331323
305	331324
306	331325
307	331326
308	331327
309	331328
309	331329
310	331330
310	331331
310	331332
309	331333
309	331334
308	331335
307	331336
306	331337
306	331338
305	331339
305	331340
306	331341
307	331342
308	331343
309	331344
309	331345
310	331346
311	331347
311	331348
310	331350
310	331351
309	331352
308	331353
307	331353
306	331354
306	331355
306	331356
306	331357
307	331358
308	331359
309	331360
309	331361
311	331362
311	331363
311	331364
311	331365
311	331366
310	331367
309	331368
308	331369
307	331370
306	331371
306	331372
306	331373
307	331374
308	331375
309	331376
310	331377
311	331378
311	331379
312	331380
312	331381
312	331382
311	331383
310	331384
310	331385
309	331386
308	331387
307	331388
307	331389
307	331390
308	331392
309	331393
310	331394
310	331395
311	331396
312	331397
313	331398
312	331399
312	331400
311	331401
311	331402
309	331403
309	331404
307	331404
307	331405
307	331406
308	331407
308	331408
309	331409
310	331410
311	331411
312	331412
313	331413
313	331414
312	331415
312	331416
311	331417
310	331418
309	331419
309	331420
308	331421
308	331422
308	331423
308	331424
309	331425
310	331426
311	331427
312	331428
313	331429
313	331430
313	331431
313	331432
312	331433
311	331435
310	331436
310	331437
309	331438
308	331439
308	331440
308	331441
309	331442
310	331443
311	331444
312	331445
313	331446
314	331447
313	331448
313	331449
313	331450
312	331451
311	331452
310	331453
310	331454
309	331455
308	331456
309	331456
309	331457
309	331458
310	331459
312	331460
312	331461
313	331462
314	331463
314	331464
314	331465
313	331466
313	331467
311	331468
310	331469
309	331470
309	331471
308	331472
309	331473
309	331474
310	331475
311	331476
312	331478
313	331479
314	331480
314	331481
314	331482
313	331483
313	331484
312	331485
311	331486
310	331487
309	331488
309	331489
309	331490
309	331491
310	331492
310	331493
311	331494
312	331495
313	331496
314	331497
314	331498
314	331499
313	331500
313	331501
312	331502
311	331503
310	331504
309	331505
309	331506
309	331507
309	331508
310	331508
311	331509
312	331510
313	331511
314	331512
314	331513
314	331514
314	331515
313	331516
312	331517
312	331518
311	331520
310	331521
310	331522
309	331523
310	331524
311	331525
311	331526
312	331527
314	331528
315	331529
315	331530
316	331531
316	331532
315	331533
315	331534
314	331535
313	331536
312	331537
312	331538
311	331539
311	331540
311	331541
312	331542
313	331543
315	331544
315	331545
316	331546
318	331547
317	331548
317	331549
316	331550
316	331551
315	331552
314	331553
313	331554
312	331555
312	331556
312	331557
313	331558
314	331559
315	331560
316	331561
317	331561
318	331563
318	331564
318	331565
318	331566
317	331567
316	331568
316	331569
314	331570
313	331571
313	331572
313	331573
313	331574
314	331575
315	331576
316	331577
317	331578
318	331579
318	331580
318	331581
318	331582
317	331583
316	331584
315	331585
314	331586
313	331587
312	331588
312	331589
312	331590
312	331591
312	331592
313	331593
314	331594
314	331595
315	331596
316	331597
315	331598
315	331599
314	331600
313	331601
312	331602
311	331603
310	331604
309	331606
309	331607
309	331608
309	331609
310	331610
311	331611
312	331612
312	331613
313	331614
313	331614
313	331615
312	331616
311	331617
310	331618
309	331619
308	331620
307	331621
307	331622
307	331623
307	331624
308	331625
308	331626
309	331627
310	331628
311	331629
311	331630
311	331631
311	331632
310	331633
310	331634
309	331635
308	331636
307	331637
306	331638
306	331639
306	331640
306	331641
307	331642
308	331643
309	331644
309	331645
310	331646
312	331648
311	331649
310	331650
310	331651
309	331652
308	331653
307	331654
306	331655
305	331656
305	331657
306	331658
306	331659
307	331660
308	331661
309	331662
309	331663
310	331664
309	331665
309	331665
308	331666
307	331667
305	331668
304	331669
302	331670
301	331671
300	331672
300	331673
299	331674
299	331675
300	331676
300	331677
301	331678
301	331679
302	331680
302	331681
302	331682
302	331683
301	331684
301	331685
301	331686
301	331687
302	331688
303	331689
305	331691
308	331692
311	331693
314	331694
318	331695
322	331696
326	331697
330	331698
333	331699
336	331700
339	331701
342	331702
345	331703
348	331704
351	331705
354	331706
358	331707
362	331708
365	331709
369	331710
373	331711
376	331712
379	331713
381	331714
382	331715
383	331716
383	331716
383	331717
382	331718
380	331719
379	331720
377	331721
376	331722
375	331723
374	331724
374	331725
373	331726
373	331727
372	331728
371	331729
370	331730
368	331731
366	331732
364	331734
361	331735
359	331736
356	331737
353	331738
351	331739
349	331740
348	331741
346	331742
345	331743
344	331744
344	331745
343	331746
343	331747
341	331748
340	331749
338	331750
336	331751
334	331752
333	331753
331	331754
329	331755
328	331756
327	331757
326	331758
326	331759
326	331760
326	331761
326	331762
326	331763
326	331764
325	331765
324	331766
323	331767
322	331767
320	331768
319	331769
317	331770
316	331771
315	331772
315	331773
315	331774
315	331776
315	331777
316	331778
316	331779
316	331780
316	331781
316	331782
315	331783
314	331784
312	331785
311	331786
310	331787
308	331788
308	331789
308	331790
307	331791
307	331792
308	331793
309	331794
309	331795
310	331796
310	331797
310	331798
310	331799
309	331800
308	331801
307	331802
306	331803
305	331804
304	331805
303	331806
303	331807
303	331808
304	331809
305	331810
305	331811
306	331812
307	331813
307	331814
307	331815
306	331816
306	331817
305	331819
304	331820
303	331820
302	331821
301	331822
301	331823
301	331824
302	331825
303	331826
304	331827
304	331828
305	331829
306	331830
306	331831
306	331832
306	331833
305	331834
304	331835
303	331836
302	331837
302	331838
301	331839
301	331840
302	331841
302	331842
303	331843
304	331844
305	331845
306	331846
308	331847
306	331848
306	331849
306	331850
305	331851
305	331852
304	331853
303	331854
302	331855
302	331856
303	331857
303	331858
304	331859
305	331860
306	331862
307	331863
307	331864
308	331865
308	331866
308	331867
307	331868
307	331869
306	331870
305	331871
305	331871
304	331872
304	331873
304	331874
305	331875
306	331876
307	331877
308	331878
309	331879
310	331880
311	331881
311	331882
310	331883
310	331884
309	331885
308	331886
307	331887
307	331888
307	331889
307	331890
307	331891
308	331892
309	331893
310	331894
311	331895
312	331896
313	331897
314	331898
313	331899
313	331900
312	331901
312	331902
311	331904
310	331905
310	331906
310	331907
310	331908
311	331909
312	331910
313	331911
314	331912
315	331913
316	331914
317	331915
317	331916
317	331917
316	331918
316	331919
315	331920
315	331921
314	331922
314	331923
314	331923
315	331924
316	331925
317	331926
318	331927
319	331928
320	331929
321	331930
322	331931
322	331932
322	331933
321	331934
321	331935
320	331936
320	331937
319	331938
319	331939
320	331940
321	331941
322	331942
323	331943
324	331944
326	331945
327	331947
329	331948
328	331949
328	331950
328	331951
327	331952
327	331953
327	331954
326	331955
326	331956
326	331957
327	331958
328	331959
329	331960
331	331961
332	331962
334	331963
334	331964
335	331965
335	331966
336	331967
335	331968
335	331969
335	331970
334	331971
334	331972
334	331973
335	331974
335	331974
336	331975
338	331976
339	331977
340	331978
341	331979
342	331980
343	331981
343	331982
343	331983
343	331984
342	331985
341	331986
341	331987
341	331988
341	331990
341	331991
342	331992
343	331993
344	331994
345	331995
346	331996
347	331997
348	331998
348	331999
347	332000
347	332001
346	332002
345	332003
344	332004
344	332005
343	332006
343	332007
343	332008
343	332009
344	332010
345	332011
345	332012
346	332013
346	332014
346	332015
345	332016
345	332017
344	332018
342	332019
341	332020
340	332021
338	332022
338	332023
337	332024
337	332025
337	332025
337	332026
337	332027
337	332028
337	332029
337	332030
336	332032
335	332033
334	332034
332	332035
330	332036
329	332037
327	332038
326	332039
324	332040
324	332041
323	332042
323	332043
323	332044
323	332045
323	332046
324	332047
324	332048
321	332049
320	332050
318	332051
316	332052
315	332053
313	332054
311	332055
310	332056
308	332057
308	332058
308	332059
307	332060
308	332061
308	332062
308	332063
307	332064
307	332065
306	332066
304	332067
303	332068
301	332069
299	332070
298	332071
297	332072
295	332073
295	332075
295	332076
295	332077
295	332077
295	332078
295	332079
295	332080
295	332081
295	332082
294	332083
293	332084
292	332085
290	332086
289	332087
288	332088
287	332089
286	332090
286	332091
286	332092
286	332093
287	332094
287	332095
288	332096
288	332097
288	332098
288	332099
287	332100
286	332101
285	332102
284	332103
282	332104
281	332105
281	332106
281	332107
281	332108
281	332109
282	332110
283	332111
284	332112
284	332113
284	332114
284	332115
284	332116
284	332118
282	332119
282	332120
281	332121
280	332122
279	332123
278	332124
279	332125
279	332126
279	332127
281	332128
281	332129
282	332129
283	332130
283	332131
283	332132
283	332133
282	332134
281	332135
280	332136
280	332137
279	332138
278	332139
278	332140
278	332141
279	332142
280	332143
281	332144
282	332145
283	332146
284	332147
285	332148
283	332149
283	332150
282	332151
282	332152
281	332153
280	332154
279	332155
279	332156
279	332157
280	332158
281	332160
282	332161
283	332162
284	332163
285	332164
285	332165
285	332166
285	332167
285	332168
284	332169
283	332170
282	332171
282	332172
281	332173
281	332174
282	332175
282	332176
283	332177
284	332178
285	332179
286	332180
287	332180
287	332181
287	332182
287	332183
287	332184
286	332185
285	332186
284	332187
284	332188
283	332189
283	332190
284	332191
285	332192
286	332193
287	332194
288	332195
288	332196
289	332197
290	332198
289	332199
289	332200
289	332201
288	332203
287	332204
286	332205
286	332206
285	332207
286	332208
287	332209
287	332210
288	332211
289	332212
290	332213
291	332214
292	332215
292	332216
292	332217
291	332218
291	332219
290	332220
289	332221
288	332222
288	332223
288	332224
288	332225
289	332226
290	332227
291	332228
292	332229
293	332230
293	332231
294	332232
294	332232
293	332233
293	332234
292	332235
291	332236
291	332237
290	332238
290	332239
290	332240
291	332241
291	332242
292	332243
293	332244
294	332246
295	332247
297	332248
296	332249
295	332250
295	332251
295	332252
294	332253
293	332254
292	332255
292	332256
292	332257
292	332258
293	332259
293	332260
294	332261
296	332262
297	332263
297	332264
297	332265
298	332266
297	332267
297	332268
296	332269
295	332270
294	332271
294	332272
293	332273
293	332274
294	332275
294	332276
295	332277
296	332278
297	332279
298	332280
299	332281
299	332282
299	332283
299	332283
298	332284
297	332285
297	332286
296	332288
295	332289
295	332290
295	332291
295	332292
297	332293
297	332294
298	332295
299	332296
300	332297
301	332298
301	332299
301	332300
300	332301
299	332302
298	332303
298	332304
297	332305
296	332306
296	332307
297	332308
297	332309
298	332310
299	332311
300	332312
301	332313
302	332314
302	332315
302	332316
302	332317
301	332318
300	332319
299	332320
299	332321
298	332322
298	332323
298	332324
298	332325
299	332326
300	332327
301	332328
301	332329
303	332331
303	332332
303	332333
303	332334
303	332335
302	332335
301	332336
301	332337
300	332338
299	332339
