408,523
406,636
395,651
395,663
396,675
396,691
395,705
390,717
385,730
383,745
379,759
376,772
367,784
376,798
430,813
444,825
418,837
394,852
379,867
370,879
367,891
363,907
361,921
361,933
362,946
364,960
367,974
371,987
375,999
377,1014
381,1029
383,1041
380,1054
372,1070
365,1084
356,1098
350,1132
344,1148
343,1164
343,1176
343,1188
343,1205
343,1220
343,1233
341,1246
340,1261
341,1276
340,1289
343,1301
344,1316
347,1332
347,1344
345,1357
341,1373
337,1390
335,1402
332,1418
326,1433
337,1446
388,1460
405,1474
375,1489
349,1504
338,1516
332,1530
327,1545
325,1559
325,1571
325,1586
327,1601
331,1614
334,1628
338,1642
344,1656
347,1671
350,1683
349,1697
345,1713
337,1726
330,1739
324,1753
319,1768
314,1782
312,1795
314,1809
315,1823
315,1838
316,1850
317,1864
316,1880
313,1893
316,1905
316,1920
319,1935
321,1948
324,1961
324,1976
323,1990
320,2004
315,2017
313,2031
311,2046
306,2060
305,2072
337,2086
387,2104
364,2118
336,2131
322,2146
314,2160
310,2173
307,2187
306,2201
308,2214
310,2229
313,2243
317,2256
322,2271
327,2284
332,2298
335,2312
336,2326
331,2339
325,2354
317,2367
311,2382
305,2401
302,2413
300,2425
300,2442
301,2456
302,2469
303,2482
304,2497
303,2512
304,2525
304,2537
304,2552
304,2568
307,2580
310,2593
313,2609
315,2623
313,2637
310,2671
304,2688
302,2703
294,2715
312,2728
366,2744
374,2759
340,2772
321,2785
312,2800
303,2816
301,2828
299,2840
300,2860
302,2873
305,2886
308,2900
312,2915
319,2929
324,2941
329,2956
331,2971
328,2984
321,2997
315,3011
309,3026
302,3040
299,3053
297,3066
296,3082
297,3095
296,3108
297,3123
298,3137
298,3151
299,3164
299,3178
299,3193
300,3207
302,3219
304,3233
307,3249
309,3262
308,3275
304,3289
300,3304
298,3317
298,3331
294,3345
288,3359
323,3374
374,3386
364,3400
333,3416
313,3429
303,3441
298,3456
295,3471
294,3484
295,3497
296,3511
300,3526
305,3540
309,3553
316,3570
321,3585
325,3598
325,3612
322,3627
316,3640
308,3654
302,3668
297,3682
293,3696
292,3709
291,3724
292,3737
292,3751
294,3765
295,3779
296,3792
295,3807
295,3820
296,3834
299,3849
302,3862
305,3876
307,3890
306,3904
300,3918
298,3932
297,3946
296,3959
291,3974
289,3987
325,4001
375,4015
358,4029
327,4042
312,4057
302,4070
297,4084
295,4098
294,4112
295,4125
297,4141
299,4158
305,4172
311,4205
323,4222
324,4238
320,4250
315,4263
309,4279
301,4294
295,4310
292,4324
290,4339
289,4354
290,4366
292,4379
292,4395
293,4409
293,4421
293,4435
293,4451
295,4464
298,4476
300,4491
304,4506
306,4519
304,4533
299,4546
297,4561
293,4576
292,4588
288,4602
284,4618
323,4631
376,4643
363,4658
331,4673
311,4686
301,4700
295,4713
291,4728
290,4742
290,4755
291,4769
296,4784
300,4798
305,4810
309,4825
315,4839
321,4853
322,4866
320,4880
314,4895
306,4909
299,4921
295,4935
291,4951
290,4964
290,4977
290,4990
291,5006
291,5022
292,5037
292,5050
291,5064
291,5078
294,5092
297,5105
300,5120
302,5133
304,5147
300,5161
297,5175
294,5189
293,5203
291,5217
283,5231
295,5244
347,5259
367,5272
340,5286
315,5300
303,5314
296,5328
293,5342
291,5356
292,5370
293,5384
295,5398
299,5411
304,5426
309,5439
314,5453
318,5467
321,5481
321,5495
317,5509
310,5523
303,5536
298,5551
296,5565
294,5578
293,5593
292,5606
294,5620
295,5634
295,5648
294,5661
295,5676
296,5689
297,5704
300,5739
304,5756
304,5772
299,5786
296,5798
294,5813
291,5829
285,5842
292,5855
336,5869
373,5884
343,5898
319,5912
306,5929
296,5943
293,5956
291,5970
290,5986
292,5999
294,6012
298,6026
302,6041
309,6054
315,6068
318,6082
321,6096
319,6111
316,6123
310,6137
303,6152
297,6166
295,6178
292,6193
293,6208
293,6221
293,6234
293,6248
293,6263
293,6277
293,6289
293,6303
295,6319
298,6332
302,6345
303,6359
305,6374
300,6388
296,6401
293,6415
290,6429
289,6444
283,6456
291,6470
361,6488
366,6501
334,6515
314,6529
302,6543
295,6556
290,6571
288,6584
290,6598
291,6611
293,6626
297,6640
300,6653
306,6668
311,6681
316,6695
319,6709
318,6723
315,6736
308,6751
300,6765
295,6778
291,6793
290,6806
290,6820
291,6834
289,6848
290,6861
290,6876
290,6889
290,6903
291,6917
297,6931
296,6944
299,6959
301,6973
300,6986
296,7000
293,7014
290,7028
290,7042
285,7055
282,7069
319,7084
367,7097
352,7110
323,7124
306,7139
296,7152
291,7165
289,7180
289,7196
289,7209
290,7226
296,7241
300,7274
314,7289
317,7305
318,7319
316,7331
311,7346
304,7362
296,7375
292,7388
291,7402
289,7417
289,7431
288,7444
289,7457
289,7473
289,7486
291,7499
292,7513
294,7528
297,7541
299,7555
297,7568
293,7583
290,7597
287,7610
287,7623
283,7639
281,7652
318,7666
362,7685
336,7698
312,7712
300,7727
293,7741
289,7754
288,7769
288,7782
291,7796
293,7810
296,7824
301,7837
305,7852
310,7865
314,7879
317,7892
316,7907
313,7920
305,7938
300,7951
296,7964
294,7980
292,7993
291,8006
291,8019
292,8035
293,8048
294,8061
296,8075
298,8090
302,8103
304,8117
306,8130
303,8145
298,8159
295,8172
294,8185
292,8201
285,8214
294,8227
336,8241
360,8256
336,8269
313,8283
302,8296
294,8311
290,8326
288,8338
288,8352
289,8367
291,8381
293,8393
298,8408
303,8422
307,8436
311,8449
312,8463
312,8477
309,8492
304,8504
298,8518
295,8532
292,8547
290,8559
290,8573
290,8589
291,8602
292,8614
293,8629
295,8647
300,8659
303,8673
304,8688
302,8702
297,8715
294,8728
292,8743
289,8758
281,8772
292,8805
345,8821
317,8837
302,8849
296,8862
291,8879
289,8893
289,8906
290,8919
292,8934
296,8949
301,8962
305,8974
308,8989
314,9005
316,9017
315,9029
313,9044
308,9060
303,9072
298,9084
295,9100
294,9115
294,9127
295,9140
295,9155
296,9170
298,9183
300,9196
305,9210
307,9226
310,9238
308,9251
303,9267
298,9281
294,9293
292,9307
286,9321
291,9336
336,9349
359,9362
341,9380
309,9396
298,9412
293,9424
292,9441
290,9456
292,9469
293,9482
297,9497
302,9511
307,9525
310,9537
314,9552
319,9567
320,9579
319,9592
316,9608
309,9622
306,9634
303,9648
303,9663
302,9677
302,9690
301,9703
302,9718
303,9733
304,9745
307,9758
309,9774
313,9788
315,9800
315,9812
311,9828
304,9843
298,9856
295,9868
290,9883
286,9899
317,9911
364,9924
356,9938
325,9954
309,9966
299,9978
292,9994
289,10009
288,10021
287,10035
288,10050
294,10065
298,10079
303,10096
308,10112
312,10126
314,10138
313,10153
311,10169
305,10182
301,10195
297,10210
294,10226
292,10240
291,10253
292,10267
292,10283
292,10297
291,10311
291,10346
300,10362
303,10378
303,10390
298,10405
293,10422
290,10436
286,10449
281,10464
278,10479
321,10493
366,10506
347,10521
316,10536
300,10551
292,10563
288,10578
285,10594
284,10607
285,10620
287,10635
291,10650
296,10664
300,10678
306,10692
311,10707
313,10722
311,10735
308,10749
301,10765
295,10779
290,10796
288,10810
287,10824
287,10839
288,10853
288,10867
289,10882
288,10896
290,10910
292,10925
296,10939
301,10952
304,10968
301,10981
294,10995
288,11010
286,11024
282,11038
276,11053
296,11067
352,11081
355,11096
325,11110
304,11124
292,11139
288,11153
285,11168
285,11187
286,11200
288,11214
291,11231
297,11245
304,11258
309,11273
313,11288
315,11302
314,11315
311,11330
306,11345
300,11360
295,11372
293,11386
291,11403
290,11416
292,11429
291,11444
292,11458
292,11472
295,11486
298,11500
304,11515
307,11530
305,11542
300,11557
294,11573
290,11586
287,11599
279,11614
284,11630
337,11643
356,11657
333,11671
308,11686
295,11701
289,11714
286,11728
285,11744
285,11758
288,11770
291,11786
296,11801
301,11815
306,11828
310,11843
315,11858
316,11872
316,11886
311,11922
300,11938
296,11953
295,11966
293,11980
294,11997
296,12011
295,12024
295,12039
296,12054
300,12068
304,12082
308,12096
311,12111
306,12126
300,12139
293,12156
290,12171
285,12185
280,12199
315,12214
367,12228
349,12242
319,12257
302,12271
294,12285
288,12299
285,12314
286,12327
288,12342
290,12356
294,12370
299,12385
303,12399
309,12413
314,12428
317,12442
317,12456
313,12471
308,12485
302,12499
298,12514
295,12528
294,12542
294,12557
294,12571
293,12584
294,12600
296,12613
297,12627
301,12642
302,12656
307,12670
306,12685
301,12699
295,12713
291,12728
286,12742
277,12755
302,12771
359,12784
353,12798
322,12817
298,12831
291,12845
287,12859
285,12875
284,12890
286,12903
288,12917
292,12933
297,12946
301,12961
307,12980
313,12996
316,13010
315,13024
310,13038
304,13054
297,13069
294,13081
291,13095
291,13111
291,13125
292,13138
292,13153
295,13168
299,13182
304,13195
307,13209
308,13224
304,13239
297,13252
293,13266
290,13282
283,13296
278,13308
313,13323
365,13338
345,13352
314,13366
299,13380
289,13395
284,13410
282,13422
282,13436
284,13452
287,13467
291,13502
306,13520
313,13536
318,13549
319,13562
316,13579
309,13594
302,13607
297,13621
294,13636
292,13651
290,13665
289,13678
289,13693
292,13709
294,13722
299,13734
303,13751
304,13766
300,13778
294,13792
290,13807
287,13822
281,13836
275,13849
303,13864
363,13880
347,13893
318,13906
301,13922
290,13937
285,13950
283,13963
283,13979
286,13995
289,14008
293,14020
298,14036
305,14052
311,14064
315,14077
319,14094
319,14108
316,14121
310,14135
304,14150
300,14166
297,14181
295,14195
294,14211
294,14225
296,14238
298,14253
302,14268
306,14282
307,14295
303,14309
296,14324
290,14339
285,14352
278,14366
275,14382
319,14396
357,14409
339,14424
310,14439
295,14453
288,14466
285,14481
283,14496
282,14511
286,14523
289,14537
293,14553
298,14567
302,14580
308,14595
312,14610
315,14624
314,14638
310,14652
305,14667
300,14682
297,14694
294,14708
292,14725
291,14740
294,14757
296,14773
301,14788
305,14802
306,14816
301,14831
295,14846
291,14863
288,14877
280,14892
286,14906
338,14920
366,14934
341,14948
314,14962
301,14977
293,14991
288,15005
287,15020
289,15033
290,15049
294,15084
304,15099
309,15114
313,15128
317,15142
317,15158
312,15172
307,15186
301,15201
297,15215
294,15229
294,15244
295,15257
298,15271
300,15286
304,15300
308,15314
309,15329
306,15343
300,15357
294,15372
290,15386
284,15399
279,15415
315,15428
370,15442
355,15457
324,15471
305,15485
295,15500
288,15514
284,15528
284,15545
284,15559
287,15576
290,15590
295,15602
300,15617
305,15632
309,15646
313,15660
313,15674
311,15689
305,15704
300,15717
297,15731
293,15747
291,15761
294,15773
295,15789
299,15804
304,15818
307,15831
307,15845
300,15861
293,15875
288,15888
285,15902
275,15918
291,15932
352,15945
363,15960
328,15975
303,15989
291,16003
286,16017
282,16032
282,16047
282,16059
284,16073
287,16090
293,16103
298,16116
304,16131
309,16146
314,16160
316,16174
315,16188
310,16203
304,16220
300,16233
297,16249
295,16264
296,16277
298,16290
301,16306
305,16321
307,16334
306,16348
301,16363
294,16378
290,16392
286,16404
277,16420
289,16435
352,16448
363,16461
337,16477
308,16492
294,16506
287,16524
285,16540
285,16557
288,16570
291,16582
294,16600
299,16614
301,16629
305,16663
312,16679
307,16695
300,16708
296,16721
293,16738
292,16754
293,16766
294,16780
295,16796
299,16812
303,16824
305,16837
303,16854
296,16868
290,16881
286,16894
282,16911
275,16928
314,16941
361,16955
344,16971
313,16985
297,16998
290,17012
285,17029
283,17042
284,17055
286,17070
288,17086
292,17099
297,17113
301,17127
307,17143
311,17157
314,17170
314,17184
311,17200
308,17214
302,17227
299,17242
297,17257
296,17271
296,17285
300,17299
305,17314
309,17329
313,17342
310,17356
303,17372
297,17386
291,17399
285,17414
277,17429
312,17443
367,17457
358,17471
324,17486
304,17501
294,17514
288,17528
286,17544
286,17558
286,17570
289,17589
292,17603
296,17617
301,17632
305,17646
307,17660
311,17675
311,17689
308,17703
304,17718
298,17732
296,17746
294,17761
294,17775
296,17789
297,17804
301,17818
304,17832
306,17847
302,17861
296,17875
291,17890
287,17903
280,17918
278,17932
324,17946
369,17960
345,17975
314,17989
297,18003
287,18018
280,18032
280,18046
279,18061
282,18075
285,18089
288,18103
294,18118
300,18131
305,18146
310,18160
311,18174
312,18189
309,18204
303,18240
290,18255
291,18270
296,18288
299,18304
303,18326
304,18342
301,18355
295,18368
291,18384
288,18401
280,18413
277,18426
316,18442
372,18457
347,18470
318,18484
302,18499
291,18514
286,18528
282,18540
282,18556
283,18572
286,18584
288,18597
292,18613
298,18628
303,18641
308,18655
312,18670
314,18685
313,18699
307,18711
302,18727
301,18742
297,18755
297,18768
301,18784
305,18799
308,18812
308,18826
309,18841
303,18856
297,18870
292,18883
287,18898
275,18914
282,18926
332,18939
365,18954
339,18969
308,18982
296,18996
289,19011
283,19026
281,19040
282,19052
284,19068
289,19084
292,19096
297,19109
299,19125
305,19140
309,19153
310,19167
311,19182
309,19197
304,19211
300,19223
297,19239
294,19255
294,19267
296,19280
298,19296
302,19311
306,19324
304,19338
299,19353
293,19368
287,19382
283,19394
275,19410
288,19425
349,19438
358,19451
335,19467
310,19482
299,19495
292,19508
288,19524
285,19539
282,19552
279,19565
278,19581
282,19596
288,19609
293,19627
300,19642
305,19655
310,19668
310,19683
307,19698
301,19713
298,19725
297,19740
297,19756
300,19769
301,19783
306,19819
308,19835
301,19850
294,19863
291,19877
286,19894
280,19909
315,19921
362,19936
350,19951
319,19965
300,19979
291,19993
286,20008
284,20023
283,20036
286,20050
289,20066
292,20081
296,20101
301,20115
304,20129
308,20144
312,20159
314,20174
313,20189
309,20202
307,20217
303,20232
299,20246
299,20260
297,20275
301,20288
303,20303
305,20321
299,20335
294,20348
292,20363
291,20378
281,20392
284,20406
329,20420
369,20435
342,20450
315,20462
300,20476
290,20493
284,20506
282,20519
281,20534
281,20550
285,20563
288,20577
293,20591
298,20606
302,20621
302,20634
305,20648
307,20664
305,20678
301,20691
296,20706
294,20721
294,20736
295,20748
297,20763
302,20779
305,20793
307,20805
305,20819
300,20836
297,20849
295,20862
287,20877
282,20892
321,20907
366,20920
344,20934
308,20950
289,20964
279,20977
276,20996
276,21011
279,21024
283,21038
288,21054
292,21068
296,21082
301,21095
304,21110
311,21126
314,21139
314,21152
312,21168
305,21183
302,21196
300,21210
299,21225
298,21240
301,21254
303,21266
305,21282
306,21298
302,21311
296,21323
291,21340
286,21355
277,21369
286,21403
353,21421
315,21436
297,21449
290,21463
287,21479
287,21494
288,21508
294,21521
297,21536
298,21552
299,21565
298,21578
296,21594
299,21609
301,21622
303,21636
302,21651
302,21666
302,21682
301,21696
301,21711
301,21726
306,21739
309,21753
312,21769
310,21783
302,21796
295,21811
289,21826
285,21841
276,21862
328,21876
361,21891
334,21905
307,21920
292,21935
284,21949
281,21963
281,21978
282,21992
285,22006
288,22021
293,22035
298,22049
302,22064
304,22078
308,22092
312,22107
315,22121
314,22135
315,22150
316,22164
314,22178
312,22193
310,22207
305,22221
302,22236
299,22250
294,22264
287,22279
285,22293
284,22307
281,22322
275,22336
301,22350
359,22369
341,22382
311,22395
298,22410
288,22426
283,22439
282,22453
282,22467
284,22482
287,22497
289,22510
292,22524
296,22540
300,22554
303,22567
306,22582
308,22597
306,22611
304,22625
301,22639
299,22654
300,22669
300,22682
302,22696
306,22712
309,22726
311,22739
308,22754
304,22769
300,22784
299,22797
292,22811
302,22827
352,22841
360,22853
331,22867
300,22884
281,22898
270,22910
268,22925
272,22941
278,22957
283,22990
290,23006
298,23021
304,23035
308,23051
312,23076
314,23092
310,23107
306,23122
305,23138
303,23152
305,23168
309,23183
311,23198
312,23214
309,23229
300,23244
294,23260
288,23275
281,23290
286,23305
342,23321
366,23335
331,23351
307,23366
294,23382
287,23397
286,23412
287,23428
291,23443
295,23458
298,23474
297,23489
295,23504
293,23520
293,23535
294,23549
296,23566
296,23580
298,23596
299,23611
296,23626
299,23642
303,23658
306,23681
311,23696
308,23710
299,23726
294,23743
286,23759
278,23773
305,23793
370,23811
341,23824
311,23838
295,23856
283,23873
280,23887
278,23901
279,23918
281,23934
285,23948
288,23962
292,23979
298,23995
298,24009
303,24024
307,24040
307,24056
307,24071
305,24084
304,24101
307,24118
304,24131
307,24145
303,24163
299,24178
290,24193
284,24207
283,24223
280,24240
273,24254
305,24268
365,24285
347,24301
312,24315
298,24329
289,24346
282,24363
282,24376
282,24390
284,24408
287,24423
291,24437
294,24452
298,24468
304,24484
309,24499
312,24516
311,24532
309,24548
305,24562
303,24578
302,24594
304,24609
305,24625
309,24662
299,24679
295,24694
291,24709
281,24724
296,24741
365,24757
357,24771
323,24786
302,24804
283,24819
272,24833
265,24849
264,24865
269,24881
276,24894
281,24909
287,24927
295,24941
301,24955
305,24971
311,24988
311,25003
309,25017
307,25032
304,25050
306,25064
307,25078
310,25094
313,25110
309,25125
301,25140
292,25155
287,25171
282,25187
273,25201
299,25217
359,25233
336,25250
309,25266
293,25281
286,25296
280,25312
283,25327
285,25342
286,25358
295,25373
302,25389
307,25403
307,25419
305,25434
302,25449
298,25464
293,25480
293,25495
294,25510
297,25526
300,25543
302,25566
306,25580
308,25594
307,25612
299,25628
294,25643
290,25657
280,25673
304,25690
359,25704
344,25718
315,25735
296,25751
286,25765
281,25780
279,25796
280,25812
283,25827
285,25841
287,25858
291,25874
296,25888
298,25902
302,25919
305,25935
305,25949
308,25963
307,25984
311,25999
315,26013
317,26029
316,26045
312,26060
306,26075
298,26090
288,26106
284,26122
279,26135
279,26151
323,26168
365,26182
336,26196
310,26212
297,26228
288,26244
285,26258
286,26273
285,26290
288,26305
290,26320
294,26357
301,26375
303,26390
304,26404
306,26420
305,26437
303,26454
304,26467
304,26482
306,26499
311,26514
314,26528
313,26544
306,26560
298,26575
294,26590
292,26605
286,26621
332,26637
382,26651
358,26667
317,26683
289,26698
271,26711
265,26727
264,26744
268,26759
274,26773
279,26789
285,26806
290,26821
293,26835
299,26851
304,26867
311,26883
310,26897
308,26912
305,26929
305,26944
306,26958
308,26974
311,26990
312,27005
307,27019
301,27035
294,27052
291,27067
280,27080
286,27097
348,27113
364,27128
328,27143
305,27158
292,27174
283,27190
282,27204
283,27219
287,27236
293,27251
303,27265
309,27281
310,27297
301,27313
293,27326
287,27342
288,27359
289,27374
292,27387
292,27403
298,27420
303,27447
310,27461
312,27475
310,27493
302,27509
294,27524
288,27538
278,27554
311,27571
371,27585
350,27599
317,27616
294,27632
285,27646
280,27661
279,27677
280,27694
281,27708
283,27721
288,27739
292,27755
298,27769
300,27783
305,27800
309,27815
313,27830
314,27844
316,27860
317,27877
318,27891
316,27906
311,27922
300,27938
291,27953
283,27967
281,27983
281,28000
270,28015
287,28050
342,28067
308,28085
294,28098
289,28112
283,28131
283,28147
283,28162
286,28179
288,28195
291,28211
295,28225
297,28240
301,28257
305,28272
307,28286
307,28302
306,28318
303,28334
303,28348
304,28363
308,28380
309,28395
308,28409
304,28425
298,28441
296,28456
292,28471
290,28486
328,28503
372,28518
339,28531
303,28548
277,28564
266,28579
264,28593
270,28608
275,28625
280,28640
285,28654
289,28669
293,28687
297,28701
303,28716
308,28731
312,28747
312,28763
311,28777
309,28792
308,28809
309,28824
310,28838
309,28854
309,28870
303,28886
296,28903
290,28918
286,28934
276,28949
303,28964
364,28980
352,28995
317,29010
299,29026
289,29041
286,29057
283,29071
289,29087
295,29102
302,29117
304,29132
301,29148
294,29163
289,29178
287,29194
290,29209
294,29224
296,29240
298,29255
299,29271
303,29286
306,29302
313,29326
314,29339
308,29353
299,29371
294,29388
285,29402
283,29416
328,29432
368,29449
334,29463
307,29477
293,29494
285,29510
280,29524
280,29538
281,29555
282,29571
287,29585
290,29599
293,29620
296,29634
301,29648
306,29665
311,29682
315,29697
316,29712
319,29749
314,29766
308,29782
299,29796
290,29811
283,29829
280,29844
279,29857
274,29873
305,29889
368,29904
346,29919
316,29934
298,29950
290,29966
286,29979
283,29995
282,30011
284,30026
287,30041
288,30056
292,30072
295,30088
298,30101
302,30116
306,30134
308,30148
306,30162
303,30178
304,30194
304,30210
307,30224
309,30239
309,30256
307,30270
300,30284
297,30300
297,30316
291,30331
321,30346
374,30364
342,30380
298,30395
271,30410
263,30426
264,30441
269,30456
273,30472
279,30486
283,30501
287,30517
292,30532
297,30547
304,30563
307,30578
308,30594
310,30608
307,30623
306,30639
306,30654
308,30669
311,30685
312,30700
312,30715
305,30731
298,30746
293,30761
285,30777
277,30791
316,30807
365,30822
339,30837
308,30853
294,30868
289,30882
284,30899
288,30913
295,30928
301,30944
307,30959
308,30974
301,30990
289,31004
276,31021
274,31035
281,31050
288,31070
294,31084
297,31098
301,31114
305,31130
311,31145
315,31161
315,31184
302,31200
297,31216
289,31232
280,31247
315,31262
371,31278
350,31293
315,31307
295,31323
287,31338
282,31353
280,31369
278,31384
279,31400
284,31436
292,31453
294,31468
297,31483
306,31499
313,31515
316,31531
320,31546
323,31561
320,31577
315,31592
305,31607
297,31623
288,31638
284,31652
282,31669
279,31683
271,31698
289,31714
356,31729
359,31745
324,31760
303,31775
290,31791
286,31805
282,31823
283,31840
285,31855
287,31869
290,31884
292,31900
295,31916
298,31930
302,31945
306,31962
307,31977
305,31990
304,32006
304,32023
306,32037
309,32052
311,32067
311,32083
305,32099
301,32113
300,32129
301,32145
300,32160
343,32174
385,32189
351,32206
299,32221
269,32235
257,32250
255,32267
260,32282
267,32296
272,32312
278,32328
285,32344
291,32358
296,32373
301,32390
305,32405
309,32418
310,32434
311,32450
308,32465
309,32480
309,32495
312,32512
314,32527
307,32543
300,32561
293,32577
287,32591
275,32605
289,32621
350,32637
347,32652
319,32666
299,32683
287,32699
288,32713
289,32727
299,32744
312,32760
319,32774
315,32788
306,32805
288,32821
271,32835
267,32849
273,32866
282,32882
289,32897
295,32911
299,32927
303,32944
309,32958
315,32971
317,32989
311,33004
302,33019
295,33042
283,33057
293,33075
358,33092
350,33127
293,33143
284,33161
280,33175
279,33189
279,33206
282,33222
284,33238
287,33252
290,33267
297,33288
304,33301
315,33315
323,33332
334,33348
337,33362
335,33377
329,33393
317,33410
301,33424
287,33437
272,33455
262,33471
262,33485
264,33499
262,33516
297,33532
365,33546
349,33560
321,33576
302,33593
292,33607
286,33622
285,33638
285,33654
288,33669
290,33683
292,33699
294,33716
295,33730
299,33743
302,33761
307,33777
308,33792
306,33805
308,33822
308,33838
310,33852
312,33866
314,33883
317,33899
312,33913
311,33928
313,33944
312,33960
316,33975
358,33988
365,34009
307,34024
268,34038
250,34054
248,34070
254,34085
260,34099
268,34115
275,34131
282,34147
292,34160
296,34176
300,34193
303,34207
308,34222
310,34237
311,34253
310,34269
310,34283
310,34298
312,34315
315,34330
313,34344
306,34360
297,34376
289,34392
281,34405
274,34421
317,34438
362,34452
333,34466
305,34482
294,34498
290,34513
289,34528
295,34543
300,34560
301,34575
302,34588
295,34605
284,34621
277,34635
277,34650
283,34665
292,34681
297,34697
297,34710
299,34725
301,34742
308,34757
313,34772
313,34808
301,34826
294,34841
284,34855
279,34871
320,34888
357,34905
324,34927
295,34941
286,34959
281,34975
279,34990
280,35004
284,35020
287,35037
287,35051
292,35065
294,35082
304,35098
311,35112
318,35126
326,35143
332,35160
331,35173
324,35187
313,35205
299,35220
286,35234
282,35249
279,35265
279,35281
281,35296
273,35310
279,35326
344,35343
359,35357
331,35372
306,35388
293,35404
285,35419
282,35432
282,35449
284,35468
287,35482
289,35499
291,35515
295,35530
298,35545
302,35560
305,35576
306,35591
306,35605
306,35620
307,35637
309,35652
313,35666
318,35682
318,35698
316,35713
316,35727
319,35742
312,35759
301,35774
335,35788
364,35804
320,35820
276,35834
265,35849
263,35864
263,35880
267,35896
271,35910
277,35926
282,35942
290,35957
294,35971
299,35986
303,36002
308,36018
310,36032
310,36047
307,36064
306,36079
306,36093
309,36109
312,36125
314,36140
309,36154
300,36172
292,36189
286,36203
277,36218
302,36234
364,36249
355,36263
323,36280
308,36294
301,36310
303,36325
305,36340
300,36356
291,36371
279,36386
270,36402
265,36416
270,36431
277,36447
287,36463
297,36499
304,36515
307,36531
310,36546
315,36561
317,36578
316,36593
308,36609
299,36624
295,36639
286,36655
278,36670
315,36684
364,36700
339,36715
307,36730
290,36746
280,36762
276,36787
276,36803
279,36818
283,36834
290,36849
296,36866
305,36881
316,36896
328,36911
338,36930
334,36944
324,36959
308,36976
287,36990
275,37005
276,37020
278,37037
280,37052
282,37066
282,37081
280,37098
273,37112
307,37127
358,37142
342,37158
308,37174
293,37187
286,37202
283,37220
282,37234
282,37249
281,37264
283,37280
288,37296
293,37310
295,37325
297,37342
301,37357
305,37370
307,37386
306,37402
307,37417
308,37432
314,37447
320,37464
325,37479
330,37492
330,37508
326,37524
313,37539
289,37554
292,37569
329,37585
309,37601
277,37614
266,37634
266,37650
269,37664
272,37678
275,37695
281,37710
289,37725
293,37739
296,37755
298,37772
302,37786
308,37799
312,37817
312,37832
311,37847
310,37861
311,37877
314,37894
316,37908
316,37921
311,37939
301,37954
296,37968
291,37983
283,37999
299,38016
358,38029
358,38043
332,38060
320,38076
317,38090
316,38104
313,38121
304,38136
287,38152
272,38188
253,38205
260,38221
272,38236
283,38249
291,38267
300,38284
303,38298
304,38311
308,38329
313,38345
315,38359
312,38377
304,38394
295,38409
293,38423
284,38439
286,38456
344,38470
358,38484
327,38500
304,38516
289,38532
280,38546
275,38561
277,38578
281,38594
285,38618
292,38634
295,38650
304,38666
318,38680
333,38696
338,38713
333,38728
318,38743
302,38758
286,38774
277,38790
279,38804
282,38819
283,38836
282,38851
283,38864
279,38880
278,38897
338,38912
371,38926
343,38941
313,38958
297,38973
290,38987
288,39003
286,39019
285,39034
286,39049
287,39064
291,39080
296,39098
300,39113
306,39129
311,39144
314,39159
312,39175
310,39190
310,39205
311,39221
313,39236
319,39251
317,39267
309,39281
312,39298
308,39312
301,39328
305,39343
356,39358
350,39373
305,39389
277,39404
266,39419
267,39435
269,39450
275,39465
278,39481
284,39496
287,39512
295,39527
301,39542
305,39558
309,39573
312,39587
312,39604
313,39618
311,39633
311,39649
314,39664
313,39680
315,39695
307,39710
298,39726
291,39741
285,39756
276,39772
299,39787
358,39801
339,39820
309,39836
293,39853
286,39887
288,39904
294,39921
299,39936
308,39950
308,39966
306,39983
300,39998
292,40012
287,40028
288,40044
289,40059
293,40074
297,40089
302,40105
305,40121
308,40135
303,40151
299,40167
293,40182
287,40196
276,40211
300,40228
363,40243
348,40257
316,40272
296,40289
286,40304
280,40318
276,40334
278,40350
281,40366
285,40380
288,40395
291,40412
292,40426
297,40441
300,40466
303,40483
308,40500
311,40513
318,40529
325,40547
329,40561
325,40578
314,40595
294,40611
282,40625
272,40639
260,40656
295,40672
356,40686
335,40700
303,40717
285,40733
274,40748
272,40762
277,40778
282,40795
286,40809
288,40822
292,40840
297,40856
302,40869
305,40884
310,40901
314,40916
313,40931
309,40945
309,40962
309,40978
313,40992
313,41007
315,41023
304,41039
298,41054
293,41068
286,41084
283,41101
331,41114
374,41128
358,41146
323,41161
299,41176
286,41190
273,41206
269,41223
271,41237
275,41251
281,41268
288,41286
295,41300
299,41317
304,41334
308,41349
310,41363
307,41378
309,41395
308,41410
311,41424
311,41440
313,41456
307,41472
299,41485
292,41500
285,41517
269,41532
293,41547
350,41584
298,41602
285,41617
280,41631
277,41647
277,41664
278,41679
284,41694
290,41709
296,41725
304,41741
316,41754
324,41769
328,41786
324,41801
316,41816
306,41831
299,41847
295,41863
298,41877
303,41892
301,41909
296,41923
290,41937
287,41953
277,41969
292,41985
354,41999
359,42014
317,42033
297,42048
288,42063
283,42079
282,42094
282,42109
284,42125
287,42140
289,42156
290,42171
293,42186
297,42202
303,42217
306,42231
305,42247
303,42262
304,42278
307,42305
316,42320
320,42335
320,42350
318,42368
318,42383
312,42397
296,42413
309,42429
360,42444
329,42459
289,42474
270,42490
264,42506
264,42520
265,42535
269,42552
275,42567
281,42580
288,42596
291,42612
297,42628
304,42642
307,42657
311,42674
311,42689
310,42703
310,42719
310,42735
314,42749
314,42763
310,42778
304,42795
295,42810
289,42824
283,42840
276,42856
321,42871
366,42886
342,42901
309,42917
296,42933
290,42946
292,42961
295,42979
304,42994
310,43008
305,43023
294,43039
284,43055
279,43069
276,43084
282,43101
291,43116
297,43130
300,43146
302,43162
307,43176
311,43191
313,43206
311,43223
302,43239
294,43274
278,43290
323,43308
355,43323
323,43337
298,43353
285,43370
276,43385
277,43400
277,43415
279,43431
282,43447
286,43460
288,43475
293,43496
297,43510
304,43524
310,43541
317,43557
323,43571
328,43585
332,43601
330,43618
324,43632
310,43645
291,43663
274,43679
268,43694
264,43707
265,43724
317,43740
350,43754
324,43768
302,43785
291,43801
286,43814
284,43829
284,43846
286,43862
288,43876
292,43890
295,43907
297,43923
300,43937
304,43951
306,43968
308,43983
308,43998
308,44012
308,44028
312,44045
314,44059
314,44072
310,44090
298,44106
293,44122
290,44146
293,44163
360,44178
378,44192
348,44213
310,44228
286,44243
270,44259
261,44275
259,44291
264,44305
270,44321
280,44336
283,44351
287,44366
295,44382
303,44397
309,44412
310,44428
310,44443
311,44459
314,44474
317,44488
318,44505
312,44519
302,44534
294,44550
289,44565
278,44580
285,44596
347,44611
358,44626
323,44642
299,44657
288,44673
280,44688
278,44703
280,44719
282,44734
289,44749
303,44765
314,44779
320,44794
321,44810
316,44825
306,44840
294,44856
284,44871
278,44887
283,44902
293,44917
302,44938
302,44973
293,44989
287,45006
280,45022
322,45035
371,45051
344,45069
313,45084
298,45099
288,45114
281,45130
279,45146
279,45160
282,45175
286,45192
291,45207
295,45221
299,45237
304,45253
305,45268
308,45283
306,45298
307,45315
310,45330
318,45344
323,45360
328,45376
325,45391
317,45405
305,45420
287,45437
271,45453
303,45466
336,45483
309,45499
280,45514
269,45528
267,45543
266,45560
271,45576
276,45589
280,45604
285,45622
293,45636
296,45650
299,45670
303,45686
308,45701
309,45714
308,45731
307,45748
307,45762
309,45775
311,45793
307,45809
300,45822
293,45837
288,45854
278,45871
284,45884
339,45898
350,45915
320,45931
303,45946
300,45972
304,45988
308,46004
306,46018
299,46034
288,46052
275,46067
272,46081
274,46097
280,46113
289,46129
296,46142
295,46158
299,46175
308,46190
313,46203
319,46219
318,46236
308,46251
300,46265
297,46280
287,46297
293,46312
346,46326
358,46342
323,46358
299,46373
288,46388
281,46415
281,46430
282,46444
284,46460
286,46478
289,46492
292,46505
297,46523
306,46539
316,46554
323,46567
331,46584
339,46601
336,46616
329,46651
287,46668
265,46685
259,46699
260,46713
257,46731
299,46748
358,46761
337,46776
311,46792
296,46809
288,46823
285,46837
284,46854
285,46870
287,46884
288,46898
290,46915
293,46931
296,46946
302,46959
308,46977
310,46993
312,47006
312,47021
311,47038
314,47054
315,47068
312,47082
305,47099
295,47115
295,47129
290,47148
297,47164
369,47179
380,47194
344,47210
311,47227
282,47242
262,47256
252,47271
252,47288
260,47303
269,47318
278,47333
285,47349
291,47365
298,47378
307,47393
313,47411
317,47425
315,47439
313,47455
317,47471
321,47486
319,47501
310,47516
300,47533
292,47548
285,47561
275,47577
311,47594
360,47608
333,47623
304,47638
290,47654
280,47670
277,47684
277,47699
281,47716
291,47731
300,47745
309,47760
320,47776
329,47793
329,47819
309,47834
293,47849
283,47866
280,47884
287,47898
293,47915
294,47931
289,47945
286,47960
285,47976
277,47992
296,48006
347,48020
351,48036
316,48053
297,48067
287,48081
281,48098
279,48114
279,48128
277,48142
283,48158
288,48175
292,48189
295,48202
299,48220
304,48235
306,48249
305,48264
303,48280
305,48296
313,48312
320,48348
329,48365
327,48381
316,48396
294,48410
288,48428
324,48444
297,48458
269,48473
260,48490
259,48505
261,48520
266,48534
270,48550
278,48567
286,48581
290,48595
296,48612
298,48630
304,48645
308,48660
307,48676
308,48692
309,48706
309,48721
311,48738
314,48753
312,48766
306,48782
298,48799
292,48815
281,48828
288,48843
335,48861
340,48875
312,48889
297,48905
293,48921
296,48936
305,48951
320,48966
330,48983
324,48998
312,49012
293,49028
274,49044
256,49059
253,49074
262,49089
272,49105
286,49121
295,49135
305,49150
314,49167
318,49182
314,49196
309,49211
303,49228
296,49243
294,49257
332,49272
359,49289
330,49304
308,49318
295,49337
288,49353
285,49368
285,49383
285,49398
288,49414
290,49429
295,49444
297,49460
300,49475
304,49489
310,49505
316,49520
325,49536
337,49551
349,49566
362,49582
360,49598
342,49626
286,49640
258,49653
235,49672
261,49688
326,49702
314,49717
293,49733
281,49750
279,49764
280,49778
283,49795
288,49811
289,49825
295,49840
299,49856
303,49872
307,49887
310,49901
312,49917
311,49934
310,49948
309,49961
311,49979
313,49995
315,50011
311,50045
290,50064
282,50080
284,50097
342,50113
360,50130
327,50147
316,50161
315,50176
316,50193
315,50207
305,50222
290,50237
272,50254
252,50270
238,50283
246,50299
262,50316
280,50331
291,50344
298,50361
303,50377
310,50393
318,50406
320,50422
317,50439
308,50454
301,50468
296,50484
284,50500
299,50515
360,50530
355,50545
318,50562
297,50577
288,50591
283,50607
281,50623
282,50638
284,50653
288,50668
292,50684
298,50700
305,50714
317,50729
326,50746
338,50761
344,50776
345,50791
339,50806
331,50822
315,50836
293,50851
269,50869
263,50883
260,50897
251,50914
267,50930
342,50946
340,50960
310,50975
293,50992
286,51007
284,51021
281,51037
284,51054
288,51068
291,51083
296,51098
299,51116
299,51131
301,51144
305,51161
311,51177
313,51192
314,51206
317,51222
319,51238
321,51254
315,51268
307,51283
299,51300
301,51315
292,51330
316,51345
379,51361
373,51377
336,51391
313,51406
289,51423
267,51439
255,51466
255,51480
260,51495
269,51513
278,51529
290,51546
300,51563
309,51579
314,51593
316,51607
315,51623
321,51640
322,51654
321,51668
317,51685
306,51701
295,51718
282,51752
333,51770
345,51787
310,51802
292,51815
283,51833
277,51850
280,51864
281,51878
285,51895
294,51911
304,51926
315,51940
320,51956
327,51973
325,51987
318,52001
311,52018
302,52034
296,52048
294,52063
291,52079
290,52096
283,52110
280,52124
279,52141
271,52157
298,52171
356,52186
348,52202
311,52218
292,52233
283,52247
278,52263
279,52282
284,52296
284,52312
284,52329
288,52343
295,52358
299,52373
304,52389
306,52405
308,52419
307,52434
309,52451
314,52466
314,52481
318,52496
321,52512
320,52528
321,52542
316,52557
303,52574
324,52589
365,52603
334,52619
285,52635
260,52651
250,52664
248,52680
251,52697
254,52712
268,52725
278,52742
287,52758
296,52773
300,52787
307,52803
313,52819
315,52835
315,52848
316,52864
318,52880
320,52895
317,52910
308,52925
299,52941
293,52957
284,52971
276,52986
326,53006
361,53020
328,53037
299,53053
288,53068
280,53084
288,53099
294,53113
305,53129
317,53144
326,53159
326,53175
316,53190
303,53206
289,53221
275,53236
269,53253
271,53280
288,53295
298,53311
302,53327
301,53343
297,53357
295,53372
288,53389
285,53404
337,53420
366,53455
299,53473
286,53488
280,53502
278,53518
279,53535
283,53551
288,53565
292,53580
295,53597
299,53612
305,53625
310,53642
311,53658
313,53672
319,53687
328,53702
338,53719
347,53734
348,53751
333,53767
312,53782
286,53797
258,53813
277,53828
314,53843
292,53859
272,53874
267,53890
266,53905
269,53919
275,53935
282,53950
289,53965
294,53981
300,53996
303,54011
307,54027
312,54041
314,54057
313,54072
311,54088
310,54103
312,54118
313,54133
312,54149
304,54164
295,54179
288,54195
279,54210
274,54224
315,54241
350,54255
326,54270
310,54286
303,54301
306,54317
310,54332
309,54347
301,54363
290,54377
277,54392
265,54408
260,54423
265,54438
273,54454
284,54472
291,54488
297,54502
304,54517
312,54534
317,54549
314,54562
305,54578
302,54594
295,54609
286,54624
293,54639
344,54656
347,54671
313,54685
296,54701
287,54717
283,54731
281,54746
282,54761
284,54777
289,54793
292,54807
294,54822
299,54839
307,54853
318,54867
328,54883
334,54899
345,54915
349,54929
344,54944
332,54961
310,54975
285,54989
268,55005
257,55021
250,55036
264,55052
331,55079
317,55095
297,55112
288,55149
284,55165
286,55181
289,55196
293,55214
297,55230
298,55247
302,55262
305,55276
307,55291
310,55308
311,55323
312,55337
314,55353
315,55369
311,55384
303,55398
296,55413
291,55430
286,55445
296,55459
350,55475
383,55491
352,55506
324,55520
302,55535
276,55553
252,55567
243,55581
245,55597
253,55613
262,55628
271,55643
278,55658
290,55674
302,55690
309,55703
314,55718
316,55735
318,55750
322,55764
324,55780
321,55796
310,55812
300,55825
290,55840
278,55857
284,55872
345,55886
358,55902
323,55918
293,55936
285,55950
280,55967
278,55984
280,55998
285,56012
292,56029
303,56045
320,56059
331,56074
341,56090
345,56107
334,56121
318,56134
301,56152
286,56168
281,56181
283,56196
283,56213
281,56228
280,56243
278,56257
271,56273
306,56290
357,56304
337,56318
309,56335
293,56351
285,56366
283,56380
283,56396
284,56413
286,56427
288,56441
291,56458
294,56474
298,56488
302,56502
306,56519
308,56536
308,56549
308,56563
311,56581
314,56596
314,56610
311,56625
310,56641
313,56659
308,56674
317,56689
361,56706
352,56721
305,56735
272,56751
257,56767
247,56782
244,56798
249,56834
272,56851
284,56868
295,56895
308,56908
308,56928
310,56945
313,56960
315,56973
318,56990
320,57007
315,57020
303,57034
294,57052
288,57067
278,57081
285,57096
330,57112
341,57128
311,57143
294,57157
287,57174
283,57190
285,57204
293,57219
303,57235
317,57251
329,57266
331,57279
328,57296
314,57313
293,57327
275,57340
270,57358
267,57373
276,57388
284,57406
294,57422
296,57438
293,57452
289,57467
289,57484
283,57498
313,57512
361,57528
345,57544
313,57560
297,57574
289,57589
286,57606
285,57621
285,57635
287,57651
288,57667
293,57682
297,57697
300,57712
304,57729
306,57744
305,57758
306,57774
310,57790
317,57805
325,57819
332,57835
333,57851
327,57867
316,57880
298,57896
275,57913
306,57928
334,57942
301,57958
275,57974
267,57989
264,58003
267,58018
272,58035
278,58050
282,58064
284,58080
293,58096
299,58112
305,58130
310,58144
312,58160
314,58175
315,58190
315,58206
315,58221
316,58236
312,58252
305,58267
296,58283
289,58297
278,58313
288,58328
350,58343
356,58358
320,58374
304,58389
298,58404
298,58420
305,58435
310,58450
310,58466
305,58480
293,58498
280,58533
274,58550
281,58565
288,58580
295,58596
302,58612
309,58628
315,58643
315,58658
309,58676
300,58703
286,58717
285,58733
338,58750
353,58766
317,58779
295,58796
284,58812
279,58826
277,58841
278,58856
280,58871
284,58887
288,58901
292,58917
296,58934
302,58949
311,58963
315,58979
325,58995
333,59011
341,59024
344,59039
337,59056
317,59071
291,59085
266,59101
249,59117
234,59132
255,59147
312,59162
316,59179
289,59194
280,59207
279,59224
278,59240
281,59255
284,59269
288,59284
292,59300
296,59316
301,59330
303,59345
304,59362
303,59377
304,59392
304,59407
305,59423
309,59438
311,59452
310,59467
304,59484
295,59499
287,59513
281,59529
275,59545
309,59560
357,59575
342,59593
327,59609
317,59624
303,59639
286,59655
270,59670
259,59685
253,59701
254,59715
260,59730
271,59746
282,59761
290,59777
300,59792
306,59807
310,59823
314,59838
319,59853
321,59868
320,59883
312,59898
303,59914
296,59929
286,59944
284,59960
330,59975
359,59991
330,60006
304,60020
291,60036
286,60051
284,60066
283,60082
284,60097
289,60112
294,60128
302,60143
313,60158
326,60173
339,60190
345,60226
322,60242
308,60258
294,60273
281,60289
272,60305
268,60324
267,60339
269,60353
272,60368
319,60385
369,60400
341,60414
314,60430
299,60446
290,60461
286,60477
285,60505
290,60522
294,60538
297,60552
301,60567
305,60584
310,60600
310,60614
310,60630
308,60646
309,60661
312,60676
313,60691
312,60707
307,60723
306,60736
304,60751
303,60769
307,60783
361,60797
381,60813
340,60829
301,60845
273,60859
253,60874
244,60891
247,60906
256,60920
266,60936
275,60952
288,60967
296,60981
307,60996
312,61012
316,61028
316,61042
316,61062
317,61077
319,61091
318,61106
313,61122
302,61138
294,61153
290,61166
280,61184
291,61199
355,61213
351,61228
316,61244
290,61260
281,61275
280,61288
282,61305
292,61322
305,61335
318,61349
327,61366
335,61382
330,61396
324,61411
311,61427
287,61444
270,61457
265,61471
270,61488
281,61504
292,61518
296,61532
293,61549
293,61564
291,61579
282,61593
293,61609
352,61626
343,61640
312,61655
296,61671
285,61687
280,61702
280,61715
283,61732
288,61748
293,61764
297,61780
300,61797
304,61812
307,61827
305,61843
307,61859
305,61874
309,61889
318,61926
330,61943
326,61959
315,61973
301,61988
276,62006
280,62021
321,62035
301,62051
268,62067
257,62083
257,62096
261,62112
269,62129
278,62143
286,62157
293,62173
297,62189
303,62204
307,62219
308,62234
309,62251
307,62267
307,62295
308,62311
311,62328
312,62344
306,62357
299,62374
291,62391
284,62405
278,62419
312,62436
349,62452
321,62467
302,62481
297,62496
298,62513
305,62531
309,62546
308,62562
304,62577
297,62593
288,62608
282,62623
279,62639
278,62654
280,62669
284,62685
292,62700
301,62714
313,62731
319,62746
318,62761
311,62776
302,62792
297,62807
288,62823
297,62837
350,62854
353,62868
319,62883
298,62899
288,62914
285,62929
284,62946
286,62960
289,62976
293,62991
295,63006
299,63022
302,63038
307,63052
315,63068
319,63083
329,63098
341,63114
353,63129
355,63144
348,63160
323,63175
294,63192
265,63206
245,63221
231,63240
265,63255
332,63271
315,63287
295,63301
288,63316
286,63333
285,63348
285,63363
286,63377
291,63394
295,63410
301,63423
302,63438
305,63456
310,63470
312,63484
312,63500
311,63517
312,63532
315,63546
316,63561
313,63578
304,63595
292,63630
276,63645
290,63663
361,63678
361,63692
338,63709
322,63725
308,63740
296,63755
283,63770
269,63787
260,63802
258,63816
261,63832
270,63848
284,63863
294,63877
303,63893
308,63909
313,63924
315,63938
320,63953
322,63970
318,63988
310,64003
301,64019
293,64035
281,64051
281,64078
361,64096
328,64113
300,64126
290,64141
284,64158
280,64175
281,64189
284,64203
287,64220
295,64236
302,64250
314,64264
325,64281
337,64297
342,64311
342,64325
334,64343
320,64358
305,64372
287,64387
270,64403
257,64419
255,64434
258,64448
254,64464
274,64481
339,64495
340,64508
314,64526
294,64542
286,64556
281,64570
279,64587
282,64603
286,64617
290,64631
292,64648
298,64664
304,64678
307,64693
309,64709
308,64728
306,64742
306,64758
308,64776
310,64791
308,64804
303,64821
298,64837
297,64851
300,64866
303,64881
344,64899
376,64913
344,64927
311,64943
279,64959
254,64974
238,64989
235,65004
244,65020
258,65036
271,65049
282,65064
294,65081
306,65096
312,65111
313,65126
311,65142
310,65158
311,65172
316,65187
319,65204
318,65218
312,65232
306,65248
300,65264
290,65280
288,65295
329,65331
316,65348
296,65363
287,65378
281,65393
282,65411
288,65426
297,65440
313,65460
324,65475
331,65490
332,65506
329,65521
318,65537
302,65551
289,65567
280,65583
278,65598
283,65612
289,65629
290,65643
288,65658
285,65674
286,65689
282,65704
321,65720
366,65735
338,65751
310,65766
295,65781
287,65797
283,65812
282,65827
284,65844
289,65874
301,65890
304,65904
308,65920
310,65937
309,65953
304,65967
305,65982
309,65998
312,66014
320,66028
324,66043
325,66060
325,66075
317,66089
300,66105
286,66121
330,66137
335,66151
292,66166
262,66183
251,66200
254,66214
258,66231
268,66247
279,66262
288,66276
297,66292
303,66309
307,66323
313,66337
316,66354
315,66370
314,66384
314,66399
314,66415
316,66432
316,66446
311,66459
303,66477
295,66493
288,66506
275,66521
288,66537
351,66553
339,66568
307,66582
293,66598
286,66615
293,66629
301,66643
310,66660
314,66676
314,66691
306,66705
296,66721
289,66738
283,66752
281,66765
281,66783
287,66799
291,66813
299,66827
307,66844
311,66861
307,66874
300,66888
294,66904
286,66920
277,66934
304,66949
351,66965
327,66981
296,66997
284,67032
280,67049
283,67066
287,67081
290,67094
293,67112
298,67129
302,67143
302,67158
304,67174
306,67190
307,67205
316,67218
326,67235
334,67252
336,67266
325,67279
305,67297
280,67313
257,67326
242,67341
260,67357
315,67374
302,67388
283,67402
277,67419
276,67435
276,67449
281,67464
283,67480
290,67496
295,67511
301,67524
305,67542
309,67558
311,67571
309,67586
307,67602
306,67618
309,67634
316,67667
314,67683
306,67698
297,67715
289,67730
279,67745
281,67761
332,67776
352,67791
331,67807
317,67822
313,67837
306,67853
297,67868
285,67884
272,67899
268,67914
271,67930
278,67944
285,67960
291,67975
296,67990
298,68005
302,68021
305,68036
313,68051
319,68067
321,68082
315,68098
308,68113
300,68128
294,68144
282,68159
289,68174
347,68190
354,68205
318,68220
298,68236
287,68250
282,68267
279,68281
280,68296
283,68312
287,68327
291,68342
296,68358
303,68377
315,68392
326,68406
334,68421
339,68439
335,68453
322,68467
311,68483
294,68500
276,68514
264,68529
261,68544
262,68560
259,68576
297,68590
355,68605
339,68622
305,68637
292,68652
286,68667
284,68683
283,68700
286,68734
297,68751
303,68768
309,68784
313,68798
314,68814
312,68831
312,68846
313,68860
316,68876
318,68893
317,68908
310,68922
302,68937
295,68955
292,68969
288,68983
317,68999
382,69016
371,69030
337,69045
312,69060
284,69076
264,69092
254,69106
252,69126
257,69142
268,69156
280,69170
291,69187
302,69203
309,69217
312,69231
311,69249
312,69265
313,69278
316,69293
317,69310
315,69326
306,69340
299,69354
292,69371
278,69387
283,69402
333,69432
308,69448
288,69464
279,69478
276,69494
276,69512
280,69527
283,69541
289,69557
299,69573
314,69588
329,69603
340,69618
340,69635
327,69650
312,69664
300,69680
292,69696
286,69711
281,69725
275,69741
272,69757
274,69773
274,69787
272,69803
306,69819
354,69834
332,69860
295,69877
286,69892
282,69905
283,69923
287,69941
293,69955
298,69968
301,69986
304,70002
308,70017
311,70030
313,70047
312,70064
311,70077
310,70091
312,70109
313,70124
312,70138
306,70153
301,70169
300,70185
300,70200
304,70214
339,70231
371,70247
329,70261
293,70275
272,70292
259,70308
255,70322
257,70336
262,70353
271,70369
281,70385
289,70420
307,70438
309,70455
305,70469
303,70482
303,70501
308,70517
313,70532
313,70545
307,70562
298,70579
290,70593
281,70611
278,70628
335,70643
356,70658
326,70674
299,70690
286,70706
280,70720
279,70735
282,70752
288,70767
302,70781
319,70797
334,70813
342,70829
339,70843
334,70858
321,70875
304,70890
288,70903
278,70919
276,70936
279,70950
282,70965
280,70980
279,70996
279,71012
273,71026
295,71042
354,71058
342,71073
311,71087
296,71102
288,71118
285,71134
284,71148
284,71163
286,71180
290,71196
297,71227
310,71241
311,71259
309,71276
305,71290
305,71304
306,71321
308,71340
312,71354
315,71369
318,71386
321,71401
318,71415
301,71431
300,71447
341,71461
325,71476
286,71491
259,71507
251,71523
252,71537
261,71553
268,71569
278,71584
287,71599
296,71614
303,71630
310,71646
313,71660
314,71675
311,71692
313,71707
314,71720
317,71736
318,71753
314,71768
306,71782
300,71797
294,71814
288,71829
280,71843
309,71859
354,71875
329,71890
300,71905
288,71920
283,71937
282,71952
298,71965
310,71981
322,71998
323,72012
317,72027
307,72042
295,72061
285,72076
277,72093
277,72129
296,72145
306,72161
310,72176
307,72192
301,72208
297,72223
289,72239
282,72254
323,72269
368,72285
339,72300
310,72315
296,72331
285,72346
279,72361
279,72377
281,72392
286,72407
292,72422
297,72437
302,72453
306,72468
307,72483
307,72499
303,72514
309,72529
319,72545
330,72559
340,72576
337,72590
320,72605
299,72621
281,72636
262,72651
256,72667
306,72682
329,72697
299,72713
280,72728
274,72742
275,72758
278,72773
283,72788
289,72806
294,72821
301,72838
306,72853
311,72867
317,72883
319,72899
316,72914
311,72930
309,72963
314,72977
313,72993
304,73010
296,73025
288,73040
279,73056
276,73071
321,73086
352,73101
324,73116
306,73132
303,73147
303,73162
309,73178
305,73193
297,73208
290,73224
283,73239
279,73254
278,73270
279,73285
284,73300
286,73316
291,73331
296,73347
303,73362
309,73377
310,73393
308,73407
300,73423
294,73438
287,73453
277,73468
299,73484
348,73499
332,73515
300,73534
285,73549
281,73564
280,73579
282,73596
287,73612
292,73625
294,73640
298,73658
303,73672
306,73687
309,73702
312,73718
316,73734
325,73748
335,73763
340,73780
336,73797
319,73832
278,73848
262,73866
253,73881
300,73895
342,73912
313,73928
292,73944
285,73958
282,73973
283,73991
282,74006
288,74019
294,74036
299,74052
304,74067
307,74082
312,74097
312,74114
307,74129
303,74143
304,74159
308,74175
313,74190
315,74205
310,74220
302,74236
293,74252
285,74266
276,74286
321,74302
365,74316
346,74331
325,74347
316,74363
306,74378
300,74392
294,74408
284,74425
268,74439
259,74454
263,74471
275,74487
287,74502
297,74515
301,74532
304,74549
308,74563
311,74576
316,74594
318,74610
313,74625
306,74639
299,74655
292,74672
278,74687
308,74719
333,74734
299,74752
282,74767
276,74781
275,74797
277,74814
280,74829
285,74843
288,74859
296,74875
304,74891
311,74905
319,74920
323,74937
331,74952
333,74967
329,74982
321,74998
309,75013
295,75027
282,75042
267,75059
257,75074
249,75088
274,75104
331,75121
320,75137
295,75150
286,75165
282,75183
281,75198
281,75212
286,75228
290,75244
295,75259
301,75274
306,75289
307,75305
307,75321
304,75335
303,75351
303,75367
305,75382
307,75397
311,75412
308,75428
299,75444
292,75458
287,75473
278,75490
295,75507
356,75542
323,75558
309,75576
298,75591
288,75606
277,75622
270,75638
267,75655
273,75668
279,75683
289,75701
296,75716
302,75729
304,75745
309,75765
314,75780
316,75794
318,75810
317,75827
310,75841
303,75855
295,75872
286,75888
282,75902
322,75917
358,75934
324,75951
295,75964
284,75978
280,75996
279,76012
281,76025
286,76040
288,76057
294,76073
299,76088
309,76101
317,76119
331,76135
336,76149
344,76163
345,76180
336,76196
322,76211
309,76224
294,76241
273,76258
254,76272
247,76286
243,76303
287,76319
348,76334
330,76347
302,76364
292,76381
288,76395
285,76409
285,76426
289,76442
294,76457
300,76491
310,76510
314,76526
312,76540
308,76555
308,76572
308,76590
312,76604
312,76617
309,76635
300,76651
292,76665
286,76679
281,76696
280,76711
346,76726
370,76740
349,76756
327,76773
308,76787
291,76802
277,76818
263,76834
257,76849
255,76863
258,76879
268,76896
283,76910
292,76923
300,76941
302,76957
306,76972
308,76985
313,77002
316,77019
313,77032
305,77046
297,77063
290,77079
280,77093
276,77108
310,77124
343,77140
314,77155
294,77168
285,77186
282,77201
282,77219
283,77255
290,77273
297,77289
305,77302
313,77318
324,77335
331,77351
335,77365
331,77380
324,77398
312,77412
297,77426
284,77442
265,77458
253,77473
252,77488
250,77503
275,77519
330,77535
321,77549
300,77564
290,77581
285,77596
284,77611
286,77626
289,77642
293,77658
299,77672
304,77687
308,77704
313,77719
313,77732
313,77749
311,77765
312,77779
315,77794
318,77809
319,77826
316,77841
308,77855
299,77871
293,77887
286,77902
296,77917
345,77932
365,77950
339,77966
321,77981
302,77997
286,78012
273,78027
265,78042
263,78057
269,78072
277,78088
287,78103
296,78118
304,78134
307,78149
309,78164
313,78180
314,78196
316,78229
317,78245
308,78261
301,78276
293,78291
283,78308
295,78323
350,78339
344,78354
311,78369
293,78385
283,78400
279,78414
278,78431
280,78445
283,78460
287,78476
292,78491
299,78507
308,78522
320,78537
331,78553
339,78568
341,78583
333,78598
318,78613
299,78628
283,78644
267,78659
259,78674
260,78692
256,78707
270,78724
340,78739
347,78753
316,78769
296,78785
288,78800
284,78814
283,78829
286,78845
290,78861
296,78875
304,78891
310,78907
316,78923
317,78958
310,78974
310,78992
313,79006
316,79021
316,79037
311,79053
301,79069
293,79083
287,79098
277,79115
306,79130
364,79144
358,79160
333,79176
321,79192
306,79205
289,79220
274,79237
266,79252
264,79266
263,79282
266,79298
274,79313
286,79328
294,79343
299,79360
301,79375
304,79388
309,79404
313,79424
312,79438
308,79452
300,79469
296,79485
288,79500
279,79514
301,79531
344,79547
319,79561
294,79576
283,79592
278,79608
278,79623
280,79637
283,79653
288,79670
292,79684
297,79698
302,79715
308,79731
314,79746
321,79759
331,79776
341,79793
343,79806
334,79820
321,79838
300,79853
282,79867
271,79882
261,79898
251,79915
274,79930
334,79962
299,79979
285,79996
280,80011
280,80024
280,80043
284,80059
287,80072
294,80087
299,80104
305,80119
310,80134
310,80148
303,80168
301,80184
301,80197
306,80214
310,80230
310,80244
305,80259
296,80274
288,80291
282,80306
275,80320
305,80335
358,80353
338,80367
318,80381
314,80397
311,80413
304,80429
292,80443
280,80458
274,80475
275,80490
277,80504
281,80520
288,80536
295,80551
298,80566
300,80581
303,80598
307,80613
309,80628
310,80664
294,80681
285,80698
275,80711
275,80728
324,80745
342,80760
308,80775
287,80790
278,80806
276,80822
278,80836
280,80851
284,80868
291,80883
297,80897
303,80916
308,80931
313,80947
315,80962
322,80977
334,80993
345,81008
346,81024
337,81039
321,81054
300,81070
280,81085
264,81100
246,81116
252,81131
306,81146
318,81162
295,81177
283,81192
278,81208
281,81223
282,81239
286,81254
291,81269
295,81285
301,81300
306,81315
312,81331
314,81346
312,81361
308,81376
307,81392
308,81406
311,81423
310,81437
308,81454
299,81468
290,81484
285,81499
276,81515
271,81529
315,81546
353,81560
329,81576
313,81591
306,81607
307,81626
299,81641
288,81656
280,81689
270,81707
276,81722
284,81736
292,81752
296,81769
297,81784
301,81799
305,81814
311,81830
314,81846
311,81860
304,81875
295,81892
290,81907
281,81922
281,81937
332,81953
351,81969
313,81982
290,81997
281,82015
278,82030
279,82043
281,82059
287,82076
294,82091
302,82105
308,82120
314,82137
321,82152
322,82166
322,82182
329,82198
333,82213
342,82228
342,82243
332,82259
314,82275
296,82289
281,82305
265,82321
255,82337
296,82372
300,82394
283,82410
280,82424
281,82439
285,82457
289,82475
294,82489
302,82502
306,82520
311,82536
314,82550
313,82564
309,82581
307,82596
305,82611
308,82625
308,82641
310,82658
305,82672
298,82685
291,82703
284,82719
273,82733
287,82747
337,82763
331,82780
302,82794
294,82808
292,82825
296,82841
297,82855
294,82869
289,82886
285,82903
284,82916
288,82930
296,82947
302,82963
302,82977
303,82992
304,83008
309,83024
314,83039
316,83053
317,83069
312,83086
302,83098
296,83112
287,83130
284,83145
335,83160
358,83174
327,83190
294,83207
280,83220
276,83234
277,83252
281,83267
287,83281
293,83296
299,83312
306,83329
311,83343
312,83357
314,83374
311,83390
313,83405
318,83438
338,83456
336,83471
322,83484
307,83501
288,83518
269,83533
260,83548
299,83563
339,83579
307,83595
283,83608
276,83624
274,83641
276,83655
282,83670
289,83685
294,83701
302,83717
308,83731
312,83746
318,83763
317,83778
312,83792
307,83808
304,83824
303,83842
305,83857
305,83872
302,83888
295,83903
288,83918
283,83933
272,83948
296,83963
349,83979
332,83994
303,84009
292,84025
292,84041
299,84078
305,84093
305,84110
303,84125
299,84141
296,84157
289,84172
282,84188
279,84203
283,84218
288,84234
296,84249
300,84264
301,84280
297,84294
291,84311
284,84325
278,84340
274,84356
311,84371
339,84386
313,84402
290,84417
279,84432
273,84448
273,84463
277,84477
279,84494
284,84508
290,84524
295,84539
298,84554
300,84572
298,84587
293,84604
293,84619
296,84633
304,84648
312,84665
322,84680
319,84694
308,84709
296,84726
277,84742
261,84755
278,84770
317,84787
295,84802
276,84816
271,84832
271,84848
272,84864
277,84878
281,84893
289,84910
295,84925
301,84938
304,84954
307,84971
308,84985
307,85000
307,85015
307,85031
308,85047
311,85060
313,85075
311,85093
303,85107
297,85123
292,85157
297,85174
346,85188
335,85202
308,85220
292,85236
284,85251
289,85265
297,85281
309,85298
319,85314
320,85330
314,85347
308,85362
303,85377
296,85392
291,85408
289,85423
295,85437
302,85452
310,85469
314,85484
312,85498
308,85514
304,85530
299,85545
289,85560
300,85575
355,85592
352,85607
322,85620
305,85637
294,85653
288,85668
287,85682
289,85698
294,85714
300,85729
305,85745
310,85781
318,85798
316,85814
314,85828
313,85843
316,85861
324,85877
330,85891
333,85907
327,85923
314,85939
299,85953
281,85968
293,85985
345,86000
319,86013
285,86029
273,86048
272,86064
273,86079
279,86094
286,86110
291,86125
301,86139
309,86155
315,86170
320,86185
322,86201
317,86216
317,86232
316,86247
314,86262
313,86278
312,86293
306,86308
298,86324
291,86339
287,86354
276,86370
284,86385
342,86401
343,86416
308,86431
287,86447
281,86462
280,86477
287,86493
294,86508
305,86523
312,86539
317,86554
317,86569
313,86585
312,86600
302,86615
295,86631
291,86645
291,86661
295,86676
298,86691
300,86707
295,86722
290,86737
287,86753
277,86770
278,86786
320,86803
335,86817
306,86833
286,86867
276,86885
278,86899
282,86913
286,86931
292,86948
299,86962
305,86976
311,86993
313,87010
310,87024
308,87037
306,87055
306,87071
311,87086
317,87099
319,87116
318,87133
318,87147
314,87160
299,87178
296,87194
340,87208
329,87222
292,87239
268,87256
262,87270
264,87283
267,87301
270,87317
278,87331
287,87345
295,87362
303,87378
310,87393
314,87406
311,87424
310,87440
311,87455
311,87490
314,87507
308,87527
294,87541
286,87557
280,87574
271,87589
303,87604
353,87619
332,87635
299,87651
285,87665
279,87681
274,87697
279,87712
284,87727
297,87742
311,87758
329,87774
338,87787
341,87803
329,87820
308,87835
294,87848
286,87864
280,87881
280,87896
283,87910
287,87925
286,87943
286,87957
283,87971
279,87987
285,88004
346,88018
352,88033
322,88048
297,88066
288,88080
283,88094
282,88110
283,88127
286,88141
291,88156
295,88171
301,88187
307,88203
311,88217
310,88232
307,88252
305,88266
304,88283
306,88299
308,88314
305,88330
299,88345
294,88360
294,88376
293,88390
297,88407
340,88421
357,88436
321,88452
289,88467
272,88482
265,88498
261,88513
265,88528
273,88544
283,88560
293,88596
307,88610
312,88624
311,88642
311,88658
310,88673
311,88687
314,88704
315,88720
311,88734
303,88748
294,88765
288,88781
278,88795
280,88809
325,88826
346,88842
312,88856
293,88870
283,88887
278,88903
275,88918
279,88931
283,88948
291,88965
302,88978
316,88996
329,89013
341,89027
340,89041
330,89057
317,89073
304,89089
296,89103
290,89118
283,89135
276,89149
273,89164
274,89201
282,89218
349,89234
349,89247
318,89264
298,89281
288,89296
284,89311
284,89326
287,89342
293,89358
298,89372
304,89388
311,89404
315,89419
316,89433
313,89448
308,89465
307,89480
307,89494
307,89509
306,89526
302,89541
293,89555
287,89571
282,89587
275,89603
284,89617
338,89632
367,89649
339,89664
313,89678
293,89694
273,89710
257,89728
253,89743
257,89758
265,89774
276,89789
288,89804
299,89820
305,89835
306,89849
305,89866
306,89880
309,89895
312,89911
311,89926
308,89942
300,89957
292,89972
287,89988
278,90003
282,90018
328,90034
333,90049
302,90064
285,90080
279,90095
279,90110
280,90125
282,90141
287,90156
293,90171
299,90186
304,90202
309,90217
317,90232
321,90248
327,90264
334,90300
334,90314
315,90329
300,90346
279,90363
265,90377
260,90391
255,90408
284,90424
350,90438
336,90452
302,90473
289,90488
282,90502
281,90518
287,90534
292,90549
295,90563
299,90578
304,90596
317,90610
321,90625
322,90640
316,90656
311,90672
308,90686
309,90701
313,90718
315,90733
312,90746
304,90762
297,90779
291,90793
280,90808
295,90823
358,90840
350,90855
319,90870
305,90907
312,90925
309,90940
302,90954
297,90970
290,90987
292,91002
290,91017
291,91032
293,91048
296,91064
299,91078
301,91094
305,91110
311,91125
311,91140
306,91155
298,91171
290,91187
281,91199
276,91215
317,91232
348,91247
318,91261
292,91278
278,91294
271,91309
270,91323
273,91338
278,91356
286,91370
293,91384
299,91400
304,91416
307,91431
306,91446
304,91461
304,91478
307,91493
316,91507
324,91523
327,91539
319,91554
305,91569
293,91584
277,91600
269,91616
302,91630
321,91645
296,91662
275,91677
270,91692
269,91707
270,91723
277,91739
285,91753
292,91768
300,91785
305,91800
311,91813
314,91830
315,91846
311,91862
310,91875
310,91890
311,91908
312,91925
310,91940
304,91956
298,91972
291,92008
293,92022
347,92036
350,92054
311,92070
291,92085
284,92099
285,92115
291,92132
301,92146
312,92161
318,92177
319,92193
315,92208
310,92221
302,92238
290,92255
282,92268
283,92282
289,92300
300,92316
306,92329
305,92344
302,92361
297,92377
291,92391
283,92405
284,92422
346,92438
352,92452
318,92467
297,92483
284,92499
279,92514
278,92528
278,92545
282,92561
288,92576
298,92611
315,92630
316,92646
311,92660
308,92679
307,92696
309,92711
313,92726
312,92741
314,92758
312,92773
315,92787
310,92803
296,92819
332,92834
349,92849
311,92864
275,92880
257,92896
252,92910
255,92925
264,92942
273,92957
284,92972
292,92987
302,93003
311,93019
315,93033
315,93048
311,93065
308,93080
307,93094
310,93110
311,93126
307,93142
298,93156
288,93171
280,93188
272,93203
271,93217
308,93233
335,93249
305,93264
284,93279
276,93294
274,93310
275,93326
279,93340
282,93356
292,93372
303,93387
328,93413
336,93429
335,93444
323,93458
309,93475
297,93492
291,93506
286,93520
286,93538
285,93553
283,93568
281,93582
279,93598
276,93615
319,93629
358,93643
337,93660
305,93676
291,93691
285,93726
286,93742
290,93757
295,93773
300,93790
305,93805
308,93820
312,93836
312,93851
309,93867
310,93882
311,93897
313,93913
315,93928
313,93943
303,93959
295,93974
291,93989
285,94005
289,94020
351,94035
370,94051
336,94066
310,94082
289,94097
275,94112
267,94128
262,94146
266,94160
274,94176
286,94193
298,94210
304,94223
310,94239
312,94256
313,94272
313,94307
315,94323
313,94341
305,94356
296,94369
289,94386
281,94403
279,94418
325,94432
345,94448
313,94465
288,94480
278,94493
275,94509
276,94526
280,94540
285,94555
290,94570
297,94586
304,94602
311,94616
316,94631
319,94648
325,94663
328,94678
329,94693
326,94709
316,94725
304,94739
290,94754
275,94771
262,94786
253,94799
259,94816
306,94832
328,94846
302,94861
286,94876
280,94897
279,94911
281,94925
283,94942
288,94958
294,94972
300,94987
306,95003
311,95020
310,95034
307,95047
304,95065
306,95081
308,95095
311,95109
312,95126
310,95142
300,95157
293,95171
287,95187
279,95204
287,95218
338,95232
349,95249
318,95265
305,95280
308,95293
312,95310
311,95327
301,95340
291,95354
281,95372
277,95387
279,95404
283,95438
290,95454
291,95471
296,95486
300,95501
306,95516
310,95534
306,95548
297,95562
290,95578
283,95594
275,95609
304,95626
356,95643
322,95659
289,95673
276,95687
271,95704
272,95720
277,95734
282,95749
288,95765
297,95781
307,95796
314,95809
320,95826
316,95843
312,95857
311,95870
313,95888
321,95903
330,95918
335,95932
334,95948
320,95965
302,95980
279,96016
312,96033
312,96050
279,96064
268,96078
266,96096
268,96112
274,96126
277,96141
287,96157
295,96174
304,96188
310,96201
314,96219
313,96235
311,96248
309,96263
307,96279
307,96295
308,96310
307,96324
302,96340
291,96357
284,96373
280,96389
272,96405
305,96420
346,96435
322,96450
295,96466
283,96482
280,96496
279,96512
286,96528
297,96543
312,96557
321,96572
331,96588
329,96604
323,96618
313,96633
304,96650
297,96665
293,96679
294,96695
298,96711
301,96727
298,96740
293,96755
288,96772
286,96787
280,96801
307,96817
359,96833
331,96848
302,96863
289,96878
283,96894
280,96909
280,96923
281,96939
284,96955
291,96970
299,96985
305,97000
311,97016
312,97032
309,97045
307,97060
307,97077
307,97118
307,97132
301,97148
295,97166
294,97181
293,97196
312,97211
369,97227
353,97243
311,97257
285,97272
270,97289
264,97304
263,97318
268,97334
276,97350
286,97366
297,97380
306,97395
316,97412
320,97427
317,97441
314,97457
313,97473
313,97488
314,97503
313,97518
307,97534
295,97550
286,97564
281,97580
271,97596
301,97611
347,97625
324,97641
291,97657
278,97673
273,97688
272,97725
279,97742
287,97758
296,97772
303,97787
312,97805
321,97821
326,97836
325,97854
317,97870
310,97886
301,97901
291,97916
281,97932
270,97947
265,97963
261,97978
260,97993
300,98009
331,98024
307,98039
286,98055
279,98070
277,98085
279,98101
281,98117
285,98131
290,98148
297,98163
304,98179
309,98194
314,98209
311,98225
306,98240
306,98255
308,98271
313,98286
315,98301
311,98317
302,98332
294,98348
286,98364
276,98379
282,98395
334,98410
342,98425
316,98441
307,98456
310,98471
309,98487
303,98502
292,98518
280,98533
276,98548
275,98564
274,98583
277,98597
284,98613
289,98629
294,98644
300,98659
305,98674
309,98691
309,98706
308,98720
301,98736
293,98753
285,98767
277,98784
311,98821
314,98836
292,98852
281,98868
277,98884
279,98898
283,98915
288,98930
297,98946
305,98960
312,98976
317,98992
318,99007
315,99022
312,99038
313,99053
318,99068
326,99084
334,99099
333,99115
319,99130
298,99145
275,99161
252,99176
272,99191
316,99207
292,99222
269,99237
263,99253
263,99268
266,99283
271,99299
277,99313
284,99329
291,99344
298,99359
302,99375
304,99390
304,99407
304,99443
304,99460
306,99476
307,99491
299,99507
293,99523
288,99538
281,99554
272,99569
299,99585
341,99600
318,99616
290,99632
280,99647
278,99661
277,99678
283,99693
293,99708
308,99724
324,99739
337,99755
338,99770
328,99785
315,99801
303,99816
295,99831
292,99847
292,99862
295,99877
297,99893
295,99908
292,99923
289,99939
281,99954
285,99970
341,99985
353,100000
317,100017
294,100032
284,100051
280,100066
280,100082
283,100100
288,100116
294,100130
297,100147
301,100163
304,100179
305,100194
304,100209
303,100227
304,100242
307,100256
309,100273
307,100289
301,100305
292,100320
289,100335
281,100353
301,100368
364,100382
361,100398
323,100415
298,100430
284,100446
271,100461
266,100478
268,100494
274,100509
281,100547
301,100566
307,100582
306,100596
305,100613
304,100630
308,100645
309,100660
308,100676
301,100694
293,100709
286,100723
277,100739
283,100759
335,100774
323,100789
293,100806
274,100823
269,100837
268,100851
267,100869
271,100885
279,100900
286,100915
292,100932
297,100948
303,100963
301,100977
301,100995
307,101011
317,101025
325,101040
328,101057
321,101074
304,101089
292,101103
281,101121
267,101137
285,101153
336,101188
287,101207
277,101224
276,101238
278,101253
283,101271
291,101287
300,101302
306,101317
310,101335
317,101351
319,101365
318,101380
317,101397
314,101413
317,101428
316,101443
315,101464
306,101479
298,101493
295,101510
287,101526
290,101542
345,101557
354,101572
319,101590
296,101605
286,101619
285,101636
291,101652
303,101668
315,101683
320,101698
320,101715
310,101731
302,101745
294,101762
284,101778
280,101793
282,101809
289,101824
298,101841
302,101857
296,101871
290,101886
287,101904
277,101919
281,101934
332,101950
350,101966
309,101983
287,101997
279,102012
275,102030
274,102045
276,102060
280,102076
287,102092
297,102108
306,102126
313,102141
310,102158
309,102173
307,102190
305,102205
307,102222
308,102259
298,102276
298,102292
294,102307
294,102324
331,102340
351,102355
310,102372
276,102387
260,102403
251,102419
254,102434
261,102450
270,102466
278,102481
288,102497
296,102513
303,102529
305,102544
304,102560
301,102576
299,102591
301,102607
305,102623
303,102638
296,102654
285,102670
277,102685
266,102702
270,102717
316,102732
325,102749
296,102764
279,102779
272,102795
272,102811
274,102831
278,102847
287,102861
294,102877
302,102894
314,102912
324,102946
330,102964
324,102981
315,102996
308,103011
299,103028
287,103046
277,103061
273,103075
270,103091
270,103108
326,103123
343,103138
314,103154
294,103171
282,103187
279,103201
277,103217
280,103234
286,103249
294,103264
300,103280
307,103297
313,103313
311,103327
305,103343
300,103360
300,103375
304,103390
307,103406
306,103422
298,103439
289,103453
286,103469
275,103486
280,103501
339,103516
344,103536
310,103553
304,103567
303,103582
301,103599
297,103615
288,103630
282,103645
280,103662
281,103678
285,103693
292,103707
295,103725
296,103742
299,103756
301,103771
309,103788
311,103804
309,103819
300,103833
293,103851
283,103868
270,103882
292,103897
345,103914
324,103930
289,103946
276,103983
270,104000
275,104017
283,104033
290,104047
297,104066
305,104082
309,104096
307,104111
305,104128
302,104144
303,104160
310,104174
315,104192
321,104208
315,104225
306,104241
292,104258
270,104273
284,104288
321,104304
298,104321
273,104336
267,104351
267,104367
269,104384
274,104399
281,104414
288,104430
298,104446
304,104462
309,104477
311,104493
308,104510
307,104525
310,104540
312,104556
314,104572
314,104589
308,104603
300,104619
296,104636
291,104651
285,104668
321,104704
319,104722
296,104738
287,104753
283,104768
284,104786
289,104802
300,104817
311,104833
325,104850
330,104865
328,104880
317,104896
300,104912
288,104931
288,104947
295,104963
299,104978
298,104994
289,105010
284,105025
280,105041
273,105057
311,105072
356,105089
325,105104
297,105119
282,105136
279,105151
276,105167
279,105183
283,105199
289,105214
295,105230
301,105246
305,105262
310,105277
311,105293
308,105309
307,105325
308,105340
308,105356
310,105372
303,105388
292,105404
286,105419
283,105435
280,105451
330,105466
363,105483
335,105498
303,105513
283,105530
271,105545
264,105561
261,105577
265,105592
275,105611
285,105628
296,105645
303,105661
305,105701
304,105717
308,105733
309,105747
307,105764
301,105782
289,105796
285,105811
275,105829
279,105845
327,105860
326,105874
297,105891
280,105908
275,105922
276,105936
279,105954
283,105970
287,105985
291,106000
298,106016
305,106034
312,106048
315,106062
318,106080
328,106096
338,106110
343,106125
338,106142
324,106159
301,106173
284,106187
273,106205
260,106221
276,106236
334,106251
332,106267
297,106285
284,106301
280,106317
280,106334
283,106349
288,106363
290,106380
298,106396
306,106412
314,106428
317,106464
310,106482
307,106498
307,106513
309,106528
309,106546
300,106562
294,106576
288,106593
278,106609
284,106625
341,106640
345,106655
305,106673
288,106688
283,106702
284,106719
291,106735
302,106750
308,106765
310,106781
312,106798
310,106813
307,106828
303,106844
295,106861
294,106876
297,106891
300,106906
304,106924
305,106939
298,106953
292,106970
287,106986
272,107004
296,107020
349,107036
327,107052
294,107067
281,107082
274,107099
273,107114
276,107129
278,107146
284,107161
293,107177
302,107193
309,107208
312,107224
311,107240
306,107255
305,107272
306,107287
310,107302
308,107319
306,107334
299,107350
298,107367
296,107406
343,107422
323,107437
289,107452
271,107470
262,107486
266,107501
271,107516
276,107534
285,107549
293,107564
300,107579
309,107596
316,107612
313,107626
311,107642
307,107659
311,107675
312,107689
312,107709
305,107725
295,107740
289,107754
280,107771
273,107788
320,107802
349,107817
321,107834
292,107851
281,107866
278,107880
278,107897
280,107914
284,107928
291,107942
300,107960
310,107976
321,107991
328,108005
327,108022
324,108039
316,108053
309,108067
302,108085
297,108102
288,108116
281,108131
278,108148
269,108165
274,108180
334,108216
300,108233
282,108251
274,108265
273,108279
275,108298
283,108315
290,108329
298,108344
306,108361
311,108378
312,108394
306,108410
302,108428
304,108444
308,108459
310,108475
310,108491
301,108507
289,108521
286,108537
275,108555
279,108570
334,108584
351,108601
320,108617
305,108633
300,108647
294,108663
288,108681
284,108696
281,108710
281,108727
287,108743
295,108759
302,108774
304,108789
303,108807
302,108822
305,108836
310,108853
311,108869
308,108884
300,108900
293,108915
286,108933
273,108948
292,108962
340,108979
326,108995
293,109010
277,109025
272,109041
272,109058
279,109101
295,109117
303,109131
308,109148
312,109165
309,109181
309,109196
308,109212
313,109229
320,109244
329,109259
328,109275
324,109292
309,109307
295,109322
273,109338
292,109355
330,109371
301,109385
276,109401
269,109418
270,109433
272,109448
276,109464
284,109480
293,109496
299,109511
306,109527
311,109544
311,109559
312,109574
311,109590
312,109606
313,109623
313,109637
310,109652
302,109670
290,109685
288,109700
283,109716
277,109732
328,109749
351,109763
314,109783
288,109799
279,109813
276,109829
277,109845
285,109862
292,109877
305,109891
320,109908
332,109925
333,109941
325,109976
298,109995
295,110012
292,110026
292,110041
288,110059
279,110076
277,110091
272,110105
269,110123
330,110139
346,110153
314,110169
288,110185
276,110202
273,110217
276,110231
279,110248
283,110265
287,110279
293,110294
299,110311
305,110328
307,110343
305,110357
303,110374
303,110391
305,110405
304,110420
301,110437
294,110454
284,110471
280,110487
270,110504
300,110520
353,110534
336,110550
305,110567
284,110582
273,110597
263,110613
259,110629
258,110645
263,110660
272,110675
281,110693
290,110708
295,110723
294,110739
294,110755
295,110773
297,110811
295,110827
285,110843
279,110859
272,110875
262,110893
290,110908
325,110923
300,110940
276,110955
267,110971
264,110987
263,111002
268,111019
274,111034
282,111050
290,111066
296,111081
302,111097
305,111113
308,111129
314,111144
324,111161
327,111180
321,111197
304,111211
288,111227
274,111245
264,111261
253,111276
272,111292
331,111309
311,111325
282,111339
270,111354
264,111372
262,111387
266,111401
270,111418
275,111435
283,111451
290,111465
296,111480
301,111498
299,111513
296,111527
293,111544
293,111560
293,111577
293,111591
288,111606
279,111624
272,111639
266,111653
262,111670
307,111686
342,111704
306,111738
280,111755
285,111772
300,111789
310,111803
311,111819
303,111837
294,111852
290,111866
289,111887
281,111903
279,111918
280,111932
286,111949
294,111966
297,111980
293,111994
286,112012
277,112028
267,112044
271,112058
318,112075
336,112092
300,112106
281,112120
274,112138
271,112154
271,112168
273,112184
276,112200
284,112218
293,112232
299,112246
302,112264
302,112280
299,112294
297,112309
295,112326
298,112343
299,112357
295,112372
290,112389
286,112406
285,112420
284,112435
311,112452
350,112468
313,112485
273,112524
247,112539
245,112556
252,112576
263,112590
271,112607
282,112623
291,112638
296,112653
297,112669
296,112686
298,112702
304,112716
305,112732
303,112749
297,112764
290,112779
283,112795
275,112812
269,112827
311,112842
331,112858
297,112875
272,112890
266,112905
263,112920
263,112937
267,112953
273,112967
278,112984
286,113000
295,113016
303,113031
310,113046
317,113063
326,113079
330,113093
326,113110
316,113126
299,113141
281,113157
268,113172
254,113188
241,113205
262,113219
320,113234
307,113255
282,113269
274,113284
270,113301
272,113317
275,113332
281,113347
285,113363
296,113381
305,113395
311,113410
315,113427
313,113443
309,113459
305,113495
307,113512
305,113529
295,113544
288,113558
282,113576
269,113594
295,113608
344,113623
327,113640
291,113656
286,113671
289,113685
298,113702
310,113719
310,113734
305,113748
297,113766
290,113782
289,113797
281,113811
277,113828
279,113845
285,113859
292,113874
298,113891
300,113908
295,113923
290,113937
284,113958
272,113974
283,113988
329,114004
325,114022
291,114037
275,114052
272,114068
266,114084
264,114101
270,114115
279,114130
287,114148
294,114164
300,114204
300,114219
299,114235
302,114252
309,114269
311,114283
317,114299
314,114316
318,114332
310,114347
295,114362
301,114379
335,114395
302,114409
273,114425
260,114443
256,114458
260,114472
266,114488
274,114505
285,114521
295,114536
303,114551
309,114569
313,114584
314,114598
311,114615
314,114631
315,114650
316,114664
313,114681
303,114698
290,114713
282,114727
273,114744
283,114761
344,114776
338,114790
304,114807
283,114824
276,114838
273,114853
274,114871
277,114887
286,114902
295,114916
308,114933
326,114950
336,114964
333,114979
323,114996
307,115013
296,115027
291,115042
284,115059
276,115076
269,115091
267,115105
266,115123
260,115139
310,115153
352,115168
325,115185
294,115202
280,115218
279,115253
283,115271
291,115289
299,115303
305,115317
312,115336
315,115356
313,115371
308,115386
309,115403
312,115419
313,115433
312,115449
304,115467
295,115482
286,115496
278,115513
274,115529
330,115546
345,115560
320,115575
307,115593
302,115608
292,115622
283,115639
274,115655
271,115672
275,115686
279,115701
288,115719
297,115734
300,115748
298,115765
298,115782
299,115798
303,115812
306,115828
302,115845
292,115862
283,115901
280,115915
326,115932
323,115949
290,115965
276,115980
269,115996
269,116013
274,116029
281,116043
293,116071
301,116086
307,116103
313,116118
311,116134
309,116150
310,116166
312,116182
321,116197
327,116213
330,116229
326,116244
312,116260
298,116276
277,116292
299,116307
338,116324
306,116339
277,116356
269,116371
269,116387
271,116403
277,116418
284,116434
291,116450
302,116466
309,116482
315,116497
319,116513
316,116529
316,116545
316,116560
318,116577
317,116592
311,116608
298,116624
284,116639
277,116656
268,116671
279,116686
339,116703
335,116718
297,116737
277,116755
269,116770
269,116786
271,116801
278,116818
290,116835
309,116849
324,116866
336,116882
335,116898
321,116913
307,116928
296,116945
290,116962
285,116998
274,117015
270,117032
268,117048
262,117062
293,117079
351,117097
320,117112
292,117127
280,117143
276,117159
276,117175
278,117190
282,117206
289,117222
297,117238
304,117253
306,117268
305,117285
301,117301
299,117315
298,117331
298,117348
299,117364
297,117379
290,117394
282,117411
276,117427
265,117444
277,117460
337,117478
332,117492
312,117507
303,117524
291,117540
277,117557
262,117596
256,117612
264,117629
274,117646
282,117661
286,117677
290,117694
292,117709
295,117724
299,117740
298,117756
295,117773
287,117787
281,117804
275,117820
267,117835
302,117851
332,117866
305,117883
278,117899
269,117913
265,117929
266,117946
271,117962
276,117977
283,117992
290,118009
294,118025
300,118039
304,118055
304,118073
305,118088
310,118103
318,118118
328,118135
333,118154
319,118168
297,118185
273,118202
251,118216
266,118232
316,118248
298,118265
270,118280
262,118294
261,118311
265,118328
269,118342
276,118358
282,118374
288,118391
300,118406
307,118420
309,118437
307,118454
306,118468
304,118483
305,118500
304,118517
298,118532
291,118546
283,118563
278,118580
270,118594
269,118608
315,118626
341,118643
303,118658
282,118672
275,118689
273,118706
278,118722
289,118758
324,118775
329,118793
323,118807
311,118822
295,118844
281,118859
275,118875
272,118890
277,118907
281,118923
277,118937
275,118952
271,118970
261,118985
279,119000
331,119016
326,119032
291,119049
276,119063
271,119078
270,119096
274,119111
278,119127
281,119142
286,119159
294,119175
300,119189
304,119205
301,119222
298,119239
297,119279
301,119293
297,119311
287,119328
282,119344
279,119358
277,119375
320,119392
359,119406
333,119420
296,119438
270,119454
254,119469
248,119484
249,119500
253,119518
263,119532
278,119550
291,119568
299,119583
302,119599
302,119615
303,119631
305,119647
308,119661
310,119677
307,119695
299,119710
290,119725
281,119741
269,119757
297,119774
338,119788
316,119803
289,119821
278,119836
275,119851
274,119867
277,119884
283,119900
288,119914
293,119930
301,119947
309,119962
314,119977
322,119993
332,120010
340,120026
342,120040
335,120056
318,120074
288,120089
270,120103
256,120120
244,120136
258,120153
322,120167
326,120182
292,120200
280,120215
276,120233
278,120249
279,120265
285,120281
289,120297
299,120312
307,120328
313,120344
315,120359
312,120375
308,120391
304,120407
304,120423
305,120438
305,120455
298,120470
288,120487
282,120523
291,120541
350,120556
329,120572
298,120588
289,120605
289,120621
296,120637
303,120652
306,120669
302,120684
298,120699
297,120716
297,120731
296,120747
295,120763
295,120778
297,120795
302,120810
306,120825
306,120842
299,120857
290,120872
286,120889
273,120904
280,120950
304,120966
286,120983
278,120999
275,121015
274,121030
278,121047
285,121062
294,121078
302,121094
308,121109
312,121125
310,121141
307,121156
307,121172
309,121188
310,121204
311,121220
311,121236
309,121251
311,121268
308,121283
300,121299
329,121315
331,121330
288,121347
260,121362
251,121378
253,121394
262,121409
272,121425
282,121441
292,121457
301,121473
309,121489
313,121504
312,121521
312,121536
308,121552
313,121568
317,121583
318,121600
311,121615
298,121633
289,121650
278,121666
273,121682
317,121697
338,121712
308,121730
284,121745
276,121759
274,121776
275,121792
279,121808
283,121823
287,121838
298,121856
307,121871
317,121885
321,121902
320,121919
315,121934
307,121949
300,121965
298,121981
293,121997
284,122012
279,122028
274,122045
264,122060
292,122075
345,122091
324,122107
290,122124
278,122138
274,122153
272,122171
273,122186
279,122201
284,122217
293,122233
302,122251
310,122287
304,122303
301,122321
302,122339
303,122353
303,122373
293,122391
283,122405
277,122420
271,122437
271,122454
330,122468
348,122483
318,122500
299,122517
295,122531
295,122546
296,122563
292,122579
289,122596
291,122637
307,122655
312,122673
310,122687
309,122701
311,122720
315,122736
316,122752
312,122766
302,122783
294,122800
287,122814
273,122829
298,122847
352,122863
324,122877
295,122892
282,122909
276,122927
276,122941
280,122955
284,122973
293,122990
301,123004
309,123019
314,123039
312,123056
311,123070
308,123085
310,123103
314,123118
318,123132
319,123149
315,123166
309,123182
298,123196
278,123212
293,123229
326,123244
295,123259
269,123275
261,123292
262,123308
265,123322
269,123338
277,123356
287,123371
296,123385
304,123402
310,123418
310,123435
307,123449
306,123465
308,123482
312,123497
314,123512
311,123528
301,123545
294,123560
287,123575
275,123591
289,123609
337,123624
321,123638
292,123655
280,123671
275,123686
278,123702
282,123721
287,123737
298,123753
308,123768
322,123784
332,123800
334,123815
327,123832
316,123847
305,123864
295,123879
292,123894
290,123911
284,123926
279,123942
276,123958
272,123973
284,123990
343,124005
340,124022
304,124059
278,124076
277,124092
280,124108
285,124124
291,124140
301,124156
308,124173
313,124188
311,124204
310,124220
308,124235
307,124251
308,124268
309,124310
287,124327
283,124344
274,124359
286,124376
350,124392
345,124407
321,124424
309,124439
295,124459
285,124473
276,124489
269,124506
271,124522
279,124536
292,124552
306,124569
313,124584
311,124599
310,124615
311,124632
315,124648
318,124662
314,124678
307,124695
295,124710
286,124725
278,124741
285,124758
346,124774
338,124788
305,124804
286,124821
278,124836
277,124851
280,124867
283,124883
290,124900
297,124914
304,124930
310,124947
314,124962
312,124977
310,124993
312,125009
321,125026
329,125040
332,125056
327,125073
310,125088
292,125104
273,125123
264,125140
313,125155
310,125169
283,125187
270,125204
269,125218
272,125234
277,125250
284,125267
292,125282
300,125296
306,125314
312,125331
313,125345
310,125360
308,125377
307,125393
311,125408
313,125423
313,125440
306,125457
295,125471
288,125486
280,125503
278,125519
326,125535
334,125549
305,125566
283,125583
275,125597
275,125612
278,125629
287,125646
300,125661
312,125675
323,125692
329,125709
322,125723
311,125739
296,125755
287,125772
288,125788
293,125828
293,125845
287,125861
281,125876
274,125892
286,125910
346,125927
327,125967
276,125984
275,126002
278,126017
283,126031
287,126049
294,126065
306,126082
315,126096
315,126112
316,126129
311,126145
310,126159
311,126175
310,126192
309,126208
302,126222
292,126238
286,126256
279,126271
278,126285
325,126302
370,126318
340,126334
314,126349
295,126364
280,126382
271,126397
269,126411
271,126428
280,126444
294,126460
306,126475
315,126490
316,126508
313,126523
313,126541
314,126558
315,126573
315,126588
308,126605
297,126620
290,126636
284,126652
272,126667
302,126683
344,126699
314,126714
288,126731
277,126746
274,126763
275,126778
278,126793
285,126810
291,126825
297,126841
305,126857
309,126872
310,126888
306,126904
307,126920
310,126936
316,126952
319,126967
315,126983
300,126999
287,127014
275,127030
268,127046
283,127062
330,127078
318,127093
290,127109
279,127125
277,127140
276,127156
281,127172
285,127187
292,127206
301,127223
308,127239
311,127253
314,127268
313,127286
311,127301
310,127315
311,127332
309,127348
308,127365
301,127379
294,127394
288,127412
279,127427
281,127441
324,127457
340,127474
307,127490
288,127504
281,127520
279,127537
279,127554
287,127591
315,127633
327,127651
317,127668
305,127682
298,127699
297,127717
304,127733
306,127748
302,127763
294,127780
288,127796
280,127810
277,127826
321,127844
353,127859
319,127874
293,127889
283,127906
279,127922
281,127939
284,127958
290,127975
295,127989
301,128004
307,128022
312,128038
310,128053
307,128067
307,128084
306,128101
308,128116
309,128131
303,128147
293,128164
285,128179
278,128193
272,128210
310,128227
368,128241
344,128257
315,128273
291,128290
275,128305
268,128319
268,128336
271,128353
279,128367
291,128381
303,128399
314,128416
317,128431
314,128445
312,128462
311,128479
315,128493
317,128507
313,128525
304,128541
294,128557
289,128571
280,128587
281,128605
343,128621
331,128637
295,128654
279,128670
275,128685
274,128700
276,128717
281,128733
287,128747
295,128762
303,128780
310,128795
314,128809
313,128826
310,128842
310,128858
314,128873
321,128888
329,128906
324,128921
308,128935
293,128952
274,128968
260,128984
294,128998
321,129014
296,129031
275,129047
271,129061
269,129077
273,129094
280,129110
286,129124
293,129139
302,129157
309,129172
315,129186
314,129203
311,129219
310,129235
309,129277
309,129294
301,129312
289,129331
284,129348
273,129383
346,129400
320,129418
291,129433
282,129447
276,129464
277,129481
281,129497
291,129511
299,129527
315,129545
327,129560
333,129574
327,129590
315,129607
304,129623
298,129637
298,129653
300,129670
299,129686
293,129700
286,129716
280,129733
270,129748
277,129763
330,129779
343,129796
303,129811
283,129826
276,129842
275,129859
278,129874
283,129889
289,129905
297,129922
305,129937
310,129952
317,129968
315,129985
311,130000
307,130017
306,130034
308,130051
310,130066
306,130080
298,130097
291,130114
286,130128
278,130143
300,130160
366,130177
350,130191
322,130205
304,130223
285,130239
273,130253
272,130269
276,130285
284,130301
296,130317
306,130331
312,130349
318,130365
316,130379
314,130394
312,130411
312,130427
313,130442
313,130457
306,130473
298,130491
290,130505
284,130520
275,130537
314,130553
342,130568
313,130582
288,130599
277,130616
274,130630
278,130644
281,130662
288,130678
296,130696
304,130712
311,130729
315,130745
313,130759
311,130775
310,130792
318,130807
328,130822
334,130838
333,130854
319,130872
299,130914
265,130930
313,130946
307,130961
282,130978
272,130995
270,131010
273,131025
279,131042
285,131057
293,131074
298,131089
307,131106
311,131142
312,131159
311,131175
311,131191
312,131207
310,131223
307,131239
298,131256
290,131271
283,131287
272,131303
285,131318
341,131335
331,131350
296,131365
280,131382
275,131397
275,131416
282,131433
295,131448
311,131463
324,131479
329,131495
326,131511
316,131525
305,131542
296,131558
292,131574
292,131589
296,131604
297,131621
293,131637
286,131651
284,131667
279,131685
275,131700
322,131715
355,131731
322,131747
293,131763
284,131778
282,131793
283,131811
288,131826
293,131841
300,131857
308,131873
317,131890
322,131904
322,131919
318,131937
314,131952
311,131966
314,131983
311,131999
308,132016
302,132030
296,132045
289,132063
282,132078
297,132096
348,132113
349,132129
319,132144
301,132158
287,132175
280,132192
278,132207
281,132221
285,132239
291,132255
301,132270
308,132284
311,132301
308,132319
306,132333
304,132347
307,132365
310,132381
309,132396
301,132410
294,132427
287,132445
277,132459
273,132473
304,132491
333,132507
303,132524
280,132566
274,132583
278,132598
283,132613
289,132630
299,132647
307,132663
310,132677
309,132694
308,132711
305,132726
309,132741
315,132757
321,132773
323,132789
316,132807
303,132824
290,132839
270,132854
280,132872
336,132908
282,132925
273,132941
271,132957
272,132972
276,132989
285,133005
291,133021
300,133037
309,133053
312,133068
312,133085
308,133100
307,133115
307,133132
311,133147
310,133163
307,133179
296,133194
287,133211
279,133226
269,133241
283,133258
344,133273
330,133289
293,133305
278,133320
272,133337
269,133352
269,133368
277,133384
289,133399
303,133415
316,133431
326,133446
333,133463
323,133478
316,133496
308,133514
301,133530
297,133544
295,133561
291,133578
281,133595
280,133609
273,133625
274,133642
332,133658
352,133672
320,133688
299,133705
290,133721
287,133736
290,133751
294,133769
302,133784
310,133798
318,133815
325,133831
328,133847
325,133861
319,133877
314,133894
313,133910
314,133924
314,133940
310,133957
300,133972
291,133987
285,134003
275,134020
284,134035
333,134050
334,134066
308,134083
295,134098
294,134113
294,134128
293,134146
287,134161
285,134208
300,134223
305,134240
305,134256
303,134273
302,134288
306,134304
309,134320
311,134335
305,134351
297,134367
290,134383
282,134398
277,134414
309,134430
343,134446
316,134461
290,134477
281,134493
277,134509
274,134524
282,134540
288,134555
295,134572
302,134587
307,134603
312,134619
312,134636
308,134673
306,134689
311,134706
314,134721
315,134737
312,134754
304,134770
294,134786
281,134801
301,134817
343,134833
314,134849
280,134864
270,134880
267,134896
270,134916
274,134930
280,134945
288,134963
299,134978
308,134993
314,135009
314,135026
310,135042
308,135056
306,135072
309,135089
311,135105
309,135119
302,135135
292,135152
285,135168
276,135183
281,135198
337,135216
345,135231
309,135245
291,135262
283,135279
280,135294
283,135309
288,135325
296,135342
305,135358
317,135372
329,135388
339,135405
341,135420
336,135435
324,135451
312,135468
305,135484
303,135498
297,135514
290,135531
282,135546
277,135562
267,135581
302,135598
346,135612
320,135626
295,135644
282,135661
280,135675
281,135690
284,135707
288,135724
297,135738
304,135753
312,135770
315,135787
311,135802
304,135846
304,135862
305,135877
304,135895
295,135911
288,135926
284,135942
277,135958
274,135973
316,135990
336,136005
307,136020
288,136037
281,136052
286,136068
291,136084
294,136099
292,136116
290,136131
288,136147
294,136163
301,136178
303,136194
300,136210
300,136225
301,136242
304,136257
309,136272
307,136291
298,136307
290,136325
283,136340
271,136354
289,136371
347,136388
331,136404
297,136440
276,136457
276,136474
279,136489
284,136505
290,136521
297,136539
306,136554
311,136569
309,136585
305,136602
302,136617
303,136632
305,136648
306,136665
301,136681
293,136695
287,136711
282,136728
274,136743
289,136758
349,136774
353,136791
312,136807
292,136821
284,136837
282,136854
286,136869
294,136884
301,136900
312,136918
321,136933
329,136947
332,136963
328,136980
322,136998
321,137013
316,137030
319,137047
317,137061
308,137075
302,137093
292,137110
280,137124
273,137139
302,137156
346,137172
313,137188
292,137202
282,137220
279,137236
281,137250
282,137265
286,137282
293,137298
302,137314
309,137328
314,137346
315,137362
311,137376
309,137391
308,137408
311,137424
311,137441
308,137485
285,137500
278,137516
273,137533
320,137549
336,137565
304,137581
284,137596
278,137612
275,137628
277,137644
282,137660
284,137675
290,137694
301,137711
307,137726
312,137741
310,137757
307,137774
306,137789
306,137804
308,137820
305,137837
301,137852
289,137867
281,137883
274,137900
259,137916
281,137930
338,137946
326,137963
287,137978
273,137993
268,138009
268,138027
270,138042
275,138056
280,138072
290,138089
300,138104
307,138120
310,138135
308,138152
303,138169
303,138205
303,138221
300,138238
292,138255
284,138269
279,138286
267,138304
275,138319
338,138334
342,138350
305,138366
281,138383
277,138408
279,138426
285,138441
291,138458
302,138474
313,138490
324,138507
327,138522
327,138537
324,138554
320,138569
318,138586
318,138601
319,138617
315,138633
304,138649
293,138664
290,138681
277,138696
284,138713
338,138728
335,138743
298,138760
286,138775
281,138791
278,138807
283,138823
284,138839
293,138854
301,138870
309,138886
314,138902
316,138917
315,138934
311,138949
306,138964
307,138980
307,138996
307,139012
300,139028
292,139043
283,139060
277,139075
268,139126
309,139144
281,139160
272,139174
271,139191
276,139208
280,139225
284,139239
292,139254
302,139272
308,139287
315,139301
314,139318
311,139334
308,139351
308,139365
308,139380
311,139398
307,139413
298,139427
291,139444
282,139460
276,139476
266,139491
300,139506
340,139524
311,139539
286,139553
276,139570
272,139586
274,139601
277,139617
282,139632
289,139650
295,139665
304,139679
312,139695
312,139712
310,139727
308,139742
306,139758
310,139774
311,139793
308,139807
300,139825
289,139841
282,139856
275,139871
270,139887
324,139904
341,139920
305,139956
275,139973
273,139991
275,140005
279,140019
286,140038
294,140055
304,140069
312,140084
316,140101
313,140118
307,140132
303,140147
300,140165
303,140181
305,140195
302,140210
293,140227
285,140243
280,140259
270,140273
281,140290
350,140307
342,140321
309,140336
294,140353
288,140369
289,140385
292,140399
297,140416
306,140433
316,140447
324,140462
332,140479
336,140497
333,140513
327,140528
322,140546
318,140561
319,140575
318,140592
313,140608
303,140623
295,140639
289,140654
278,140672
284,140688
340,140733
288,140750
283,140768
282,140783
285,140798
289,140815
297,140832
305,140848
313,140862
319,140878
321,140895
319,140911
314,140925
309,140941
307,140958
309,140974
311,140988
306,141004
298,141022
288,141037
282,141051
274,141067
273,141084
328,141100
334,141115
305,141130
287,141148
280,141163
278,141177
279,141194
283,141213
289,141229
296,141244
304,141260
312,141276
316,141291
315,141307
312,141323
310,141339
308,141355
309,141370
310,141386
308,141402
303,141417
293,141433
285,141449
277,141465
268,141480
309,141497
343,141512
311,141528
281,141543
270,141559
270,141575
273,141591
277,141606
280,141623
288,141638
297,141654
308,141669
316,141686
314,141723
307,141740
306,141756
302,141772
308,141788
311,141805
307,141820
297,141837
291,141852
288,141869
278,141884
313,141903
357,141918
324,141934
300,141952
291,141967
287,141982
289,141998
289,142015
297,142030
307,142045
314,142061
324,142078
330,142094
330,142108
325,142125
319,142141
314,142157
311,142172
313,142187
313,142204
309,142220
301,142234
292,142251
286,142268
276,142283
285,142300
341,142346
290,142363
283,142380
282,142395
284,142410
288,142429
293,142444
302,142458
311,142475
319,142491
322,142508
319,142522
315,142537
311,142555
309,142570
309,142584
310,142601
309,142621
300,142636
293,142651
287,142667
277,142685
275,142699
317,142713
338,142731
306,142748
287,142763
281,142777
280,142794
282,142811
286,142826
291,142840
298,142858
308,142874
317,142888
322,142903
322,142920
318,142938
313,142952
311,142966
310,142984
313,143001
314,143015
311,143030
302,143047
293,143064
286,143078
276,143093
276,143111
337,143127
336,143141
304,143157
287,143173
278,143191
276,143205
276,143219
280,143237
287,143253
296,143268
304,143283
316,143303
320,143320
318,143334
313,143349
307,143367
304,143382
302,143396
304,143413
306,143430
301,143446
292,143461
284,143498
267,143516
318,143532
348,143547
316,143562
289,143581
279,143596
276,143611
276,143627
280,143644
286,143660
294,143674
302,143690
312,143707
319,143723
317,143737
313,143753
305,143770
300,143785
298,143801
297,143816
301,143834
301,143849
293,143863
287,143880
282,143896
273,143913
272,143959
305,143975
283,143992
276,144009
272,144028
274,144044
274,144059
275,144075
281,144091
288,144106
297,144122
304,144138
303,144154
298,144169
295,144186
297,144201
302,144217
308,144233
312,144248
311,144264
304,144280
297,144295
292,144312
280,144327
293,144344
345,144359
335,144374
306,144391
293,144406
285,144421
283,144438
284,144453
289,144470
293,144485
300,144500
309,144517
316,144532
320,144548
318,144564
312,144579
306,144595
304,144611
303,144627
303,144643
305,144658
300,144674
290,144690
281,144710
274,144727
264,144741
294,144756
343,144775
310,144790
287,144805
280,144821
278,144838
277,144854
281,144868
286,144883
293,144901
303,144916
310,144930
318,144947
318,144963
315,144979
307,144994
301,145009
295,145027
295,145042
298,145056
299,145072
297,145089
285,145104
279,145119
275,145135
263,145152
286,145167
345,145182
327,145198
292,145215
279,145231
276,145267
279,145285
285,145302
295,145317
304,145332
313,145349
321,145367
321,145382
315,145396
309,145416
302,145433
301,145447
304,145462
306,145479
303,145496
294,145511
287,145558
270,145575
328,145592
323,145606
294,145623
280,145641
276,145656
277,145671
279,145687
284,145704
292,145720
301,145734
309,145751
319,145767
323,145783
321,145798
313,145814
306,145830
301,145847
301,145861
303,145876
305,145894
300,145909
292,145925
283,145940
278,145957
266,145973
276,145988
327,146003
320,146021
288,146036
279,146051
275,146067
275,146084
278,146100
282,146118
291,146134
300,146150
308,146165
316,146182
320,146197
318,146213
312,146229
305,146244
303,146260
302,146276
305,146292
309,146308
303,146324
293,146339
286,146356
280,146371
265,146387
287,146403
344,146418
323,146435
292,146450
281,146466
275,146482
276,146498
278,146513
284,146530
291,146545
299,146561
311,146577
319,146592
322,146609
318,146624
309,146640
300,146656
298,146671
295,146688
299,146703
300,146719
298,146735
288,146751
281,146766
277,146782
261,146802
290,146818
345,146832
323,146848
292,146865
278,146880
276,146894
277,146911
280,146928
285,146944
296,146958
305,146974
317,146991
328,147008
328,147044
314,147060
308,147078
305,147094
306,147109
309,147160
292,147177
286,147191
276,147206
270,147224
324,147241
328,147256
298,147271
285,147289
281,147305
282,147319
284,147334
288,147351
295,147368
305,147383
313,147397
321,147415
326,147431
325,147446
317,147461
310,147478
305,147494
303,147509
303,147523
309,147545
302,147560
291,147574
287,147591
279,147608
270,147624
271,147639
314,147655
320,147672
290,147688
278,147702
273,147718
272,147735
277,147751
281,147766
286,147781
294,147799
301,147814
310,147829
314,147845
311,147862
305,147877
297,147893
293,147908
291,147926
294,147941
299,147955
299,147972
291,147989
281,148004
276,148019
270,148035
268,148051
312,148068
318,148082
294,148099
279,148115
276,148131
277,148146
278,148161
282,148178
287,148194
293,148212
303,148229
311,148244
312,148260
308,148276
300,148292
294,148307
290,148323
292,148339
295,148355
298,148371
294,148386
284,148403
274,148418
270,148434
258,148450
264,148466
320,148482
313,148498
285,148513
277,148530
276,148545
276,148560
279,148577
284,148592
290,148609
300,148624
310,148640
320,148656
323,148671
321,148688
313,148737
301,148753
303,148768
306,148784
303,148802
290,148819
280,148855
260,148872
317,148889
330,148905
296,148920
282,148936
274,148958
275,148972
280,148986
285,149004
293,149021
303,149036
314,149050
323,149067
326,149084
319,149099
311,149113
300,149131
294,149147
290,149163
292,149177
293,149194
291,149211
281,149225
272,149239
269,149257
255,149274
273,149288
332,149303
322,149320
287,149338
278,149352
275,149366
276,149384
280,149400
289,149414
295,149430
307,149447
319,149464
329,149478
328,149492
325,149510
317,149527
308,149541
304,149556
301,149573
305,149591
308,149605
304,149619
294,149640
287,149656
279,149670
265,149687
289,149703
344,149720
317,149734
293,149750
281,149767
280,149782
280,149797
283,149813
289,149830
299,149846
308,149860
320,149876
328,149894
327,149909
320,149923
314,149940
307,149956
304,149972
302,149987
305,150002
307,150020
301,150035
292,150049
284,150066
279,150083
267,150098
296,150113
339,150129
315,150146
289,150161
282,150176
280,150192
282,150209
287,150224
292,150239
298,150255
308,150273
320,150289
327,150340
313,150354
309,150370
306,150388
308,150404
311,150419
309,150434
301,150452
290,150467
283,150481
273,150497
268,150514
320,150530
327,150544
298,150560
282,150577
277,150594
277,150629
288,150646
295,150664
305,150679
315,150693
323,150710
324,150727
319,150743
311,150758
305,150773
304,150791
305,150806
308,150820
307,150837
299,150853
287,150868
282,150884
272,150899
262,150917
318,150932
336,150946
305,150962
285,150979
278,150994
277,151009
279,151025
285,151046
291,151060
299,151074
310,151092
321,151108
326,151122
322,151138
315,151154
308,151172
304,151186
304,151200
305,151218
309,151234
306,151248
298,151264
291,151280
284,151298
269,151312
277,151326
337,151344
333,151360
300,151374
287,151389
283,151406
284,151424
287,151438
292,151452
297,151470
308,151486
320,151500
329,151515
331,151532
326,151548
316,151564
309,151578
305,151596
304,151612
307,151626
308,151641
303,151658
292,151674
284,151689
280,151704
263,151725
290,151740
329,151754
305,151771
283,151787
276,151802
275,151818
276,151833
281,151849
286,151867
294,151915
321,151929
322,151945
316,151963
308,151980
302,151994
299,152009
301,152027
301,152042
300,152056
290,152073
282,152090
275,152105
262,152120
260,152135
310,152153
316,152168
286,152182
274,152199
271,152215
272,152231
276,152246
282,152261
290,152279
299,152294
311,152308
320,152325
325,152341
322,152358
312,152393
301,152411
301,152428
303,152446
300,152461
292,152478
282,152496
276,152510
261,152525
265,152542
331,152558
319,152573
290,152588
278,152605
273,152622
273,152636
275,152650
280,152668
288,152684
299,152699
308,152714
317,152731
319,152748
314,152762
307,152776
300,152794
296,152810
296,152825
298,152840
301,152857
295,152873
286,152888
280,152902
275,152920
259,152937
289,152951
337,152966
314,152983
283,152999
275,153014
274,153028
274,153046
280,153063
287,153077
294,153092
304,153109
320,153127
326,153143
326,153159
319,153176
309,153192
305,153206
303,153223
304,153239
306,153254
304,153270
296,153285
287,153303
280,153318
271,153332
263,153349
305,153366
322,153381
294,153396
280,153412
276,153428
278,153446
282,153493
301,153508
312,153524
321,153542
326,153559
322,153573
317,153588
310,153606
305,153621
305,153636
308,153652
309,153669
305,153684
295,153699
287,153715
282,153732
267,153748
276,153762
329,153778
321,153795
291,153810
281,153825
278,153845
281,153862
286,153876
291,153890
299,153908
308,153924
319,153938
327,153954
328,153971
324,153988
314,154002
308,154016
306,154034
307,154050
309,154065
309,154080
303,154097
293,154114
284,154130
276,154165
325,154183
333,154201
296,154215
285,154229
280,154248
280,154265
283,154279
287,154294
293,154311
304,154328
317,154343
326,154357
328,154375
323,154391
313,154405
308,154420
302,154437
300,154454
304,154469
306,154483
305,154501
295,154517
286,154534
280,154550
266,154567
284,154583
342,154597
326,154613
293,154630
281,154646
280,154660
281,154676
284,154693
291,154708
298,154724
309,154739
321,154757
331,154772
332,154786
328,154803
320,154819
311,154834
306,154850
305,154865
306,154883
309,154898
306,154913
298,154929
290,154946
284,154961
272,154976
275,154992
325,155010
324,155026
294,155074
282,155088
287,155104
292,155122
299,155139
308,155153
319,155169
327,155186
328,155202
322,155216
315,155232
307,155252
302,155268
300,155282
302,155299
303,155316
298,155330
288,155345
281,155362
273,155379
258,155394
269,155408
321,155425
312,155442
281,155457
273,155471
271,155489
271,155505
276,155520
282,155534
288,155551
299,155569
310,155583
319,155597
321,155615
316,155631
308,155645
300,155660
296,155677
294,155695
297,155709
298,155723
297,155741
287,155757
277,155771
271,155786
261,155803
259,155821
325,155835
323,155849
288,155867
273,155883
267,155899
266,155934
275,155957
286,155973
296,155987
308,156004
316,156022
315,156039
305,156053
299,156069
294,156086
293,156102
294,156116
297,156132
301,156149
296,156165
286,156179
279,156195
273,156212
259,156228
290,156242
338,156258
313,156275
284,156291
276,156305
274,156321
276,156338
279,156354
286,156368
292,156384
302,156401
315,156417
323,156431
324,156447
318,156464
309,156479
302,156493
297,156510
296,156527
300,156542
302,156557
300,156572
292,156590
283,156607
279,156657
331,156674
309,156692
281,156707
275,156722
275,156738
278,156754
281,156770
287,156784
293,156801
303,156817
314,156833
323,156848
324,156863
319,156880
312,156896
306,156910
302,156926
302,156943
305,156958
310,156974
308,156989
299,157006
289,157022
284,157036
270,157052
270,157069
333,157084
330,157100
300,157115
285,157132
279,157148
277,157162
280,157177
287,157195
294,157210
302,157224
312,157241
324,157257
328,157273
326,157287
320,157303
312,157320
305,157338
304,157355
306,157370
308,157385
308,157401
301,157417
293,157432
286,157448
276,157464
265,157479
316,157495
348,157511
313,157527
291,157542
284,157557
282,157574
282,157589
285,157605
291,157621
300,157636
309,157651
322,157669
329,157706
318,157722
311,157739
305,157754
304,157770
304,157787
308,157803
308,157818
302,157834
294,157850
287,157865
279,157882
267,157897
308,157913
340,157929
310,157944
287,157960
282,157976
280,157991
283,158008
288,158023
294,158042
303,158058
315,158073
325,158089
331,158104
328,158120
321,158137
314,158152
306,158202
305,158219
305,158235
299,158252
288,158268
280,158283
273,158300
262,158315
296,158330
327,158347
301,158362
279,158379
274,158394
274,158409
276,158426
280,158441
287,158457
292,158473
304,158488
314,158504
321,158520
321,158536
316,158552
309,158568
304,158583
301,158599
301,158615
305,158630
307,158647
304,158662
294,158679
286,158694
280,158709
265,158725
274,158745
342,158759
321,158775
290,158793
282,158809
276,158824
277,158839
280,158857
287,158872
294,158886
301,158903
312,158919
322,158936
323,158950
318,158965
311,158983
304,158998
300,159013
300,159029
303,159046
305,159062
304,159076
299,159092
289,159109
283,159125
273,159139
268,159155
325,159172
343,159187
309,159203
292,159218
283,159236
281,159251
283,159265
287,159282
293,159298
302,159314
313,159329
323,159344
329,159362
326,159377
320,159391
313,159408
305,159428
303,159443
304,159479
310,159497
303,159514
292,159528
286,159544
277,159561
271,159579
327,159593
334,159608
304,159626
286,159642
281,159656
281,159671
282,159688
286,159706
294,159721
302,159770
328,159785
325,159804
318,159820
309,159835
303,159851
301,159867
302,159884
305,159898
306,159913
298,159931
288,159946
282,159962
276,159977
261,159994
293,160010
331,160024
305,160040
281,160057
274,160073
273,160088
274,160103
279,160120
284,160136
292,160151
304,160171
316,160187
323,160201
322,160217
317,160233
309,160250
303,160265
301,160279
300,160296
305,160313
307,160328
303,160343
293,160360
285,160376
278,160391
263,160405
266,160422
335,160440
324,160454
293,160468
279,160486
271,160502
270,160517
272,160532
275,160548
282,160566
290,160580
300,160594
310,160612
315,160628
311,160644
303,160658
296,160675
289,160692
287,160706
286,160721
289,160739
293,160755
289,160770
281,160784
270,160801
267,160819
250,160835
301,160860
327,160875
293,160890
273,160906
266,160923
266,160940
268,160954
272,160969
277,160987
288,161002
300,161016
311,161033
316,161049
315,161065
307,161080
299,161095
291,161113
288,161128
288,161142
289,161159
292,161175
291,161192
283,161227
269,161245
254,161262
274,161277
325,161293
303,161344
267,161360
271,161377
275,161393
281,161410
290,161425
300,161441
311,161457
319,161473
319,161488
311,161505
303,161520
297,161536
292,161552
292,161567
296,161586
297,161601
297,161619
287,161636
280,161650
274,161667
262,161683
266,161699
326,161714
324,161729
290,161746
276,161762
273,161776
273,161793
277,161809
283,161825
291,161840
300,161855
310,161872
323,161888
328,161902
326,161918
319,161935
311,161951
305,161966
301,161981
302,161998
306,162014
308,162028
307,162044
298,162061
288,162077
282,162092
271,162107
270,162124
339,162140
336,162154
302,162170
287,162187
280,162203
280,162217
281,162233
287,162250
297,162269
306,162283
316,162300
328,162317
331,162331
327,162345
320,162363
311,162379
306,162395
302,162409
302,162426
305,162443
309,162457
307,162471
300,162489
291,162505
284,162520
272,162535
272,162551
332,162569
332,162583
302,162597
287,162615
280,162631
279,162646
282,162661
289,162677
296,162695
305,162709
314,162723
324,162741
329,162757
326,162771
320,162786
313,162803
305,162820
298,162836
299,162885
306,162904
293,162921
285,162935
281,162950
269,162971
285,162987
336,163003
312,163040
275,163057
274,163074
274,163088
280,163103
288,163122
298,163137
309,163152
319,163168
326,163185
324,163201
318,163215
310,163231
304,163248
300,163263
299,163278
300,163294
302,163311
303,163326
294,163341
288,163357
282,163374
272,163390
258,163404
298,163420
340,163437
302,163452
281,163467
276,163483
272,163500
271,163516
277,163530
284,163546
293,163563
303,163578
312,163593
323,163609
324,163625
317,163642
309,163656
301,163676
297,163691
296,163706
297,163723
295,163738
302,163755
297,163770
287,163785
280,163802
271,163817
260,163832
295,163849
348,163864
318,163880
289,163896
280,163911
277,163928
278,163943
280,163958
286,163975
296,163990
307,164005
319,164022
328,164037
330,164052
323,164069
317,164084
307,164101
303,164116
300,164131
300,164147
303,164163
305,164178
304,164195
297,164210
290,164226
283,164242
270,164257
272,164273
326,164289
330,164304
298,164321
281,164336
278,164356
279,164372
283,164423
307,164442
318,164458
326,164472
328,164489
324,164506
314,164523
306,164537
301,164552
299,164570
301,164585
304,164599
305,164616
298,164632
290,164648
284,164663
279,164678
262,164696
289,164711
337,164726
315,164742
287,164759
277,164775
277,164811
285,164828
292,164846
303,164861
313,164876
323,164893
330,164911
327,164926
320,164941
314,164957
307,164974
303,164989
301,165004
304,165020
307,165038
308,165053
298,165067
289,165087
279,165104
266,165118
276,165133
337,165150
329,165168
295,165182
283,165196
278,165214
278,165231
279,165245
286,165260
292,165277
302,165295
315,165309
325,165323
329,165341
325,165357
317,165372
308,165387
304,165404
300,165421
300,165436
302,165450
305,165468
306,165484
296,165498
288,165514
285,165531
273,165548
271,165562
325,165576
343,165594
307,165611
286,165625
281,165640
278,165657
280,165675
285,165689
291,165703
301,165721
314,165737
325,165752
331,165771
329,165787
320,165803
312,165818
305,165833
300,165851
298,165866
302,165880
304,165897
308,165913
302,165931
292,165980
270,165997
316,166014
332,166031
300,166045
285,166062
281,166079
278,166094
282,166109
288,166125
295,166142
303,166158
312,166172
322,166189
328,166205
326,166221
319,166236
312,166252
307,166268
300,166285
299,166299
300,166315
304,166332
306,166347
301,166362
292,166378
284,166395
277,166411
263,166425
286,166441
345,166458
318,166474
287,166493
278,166508
277,166524
279,166540
281,166557
290,166593
312,166609
322,166626
328,166642
328,166658
321,166674
311,166690
304,166707
300,166722
299,166737
301,166754
303,166769
306,166785
299,166801
289,166816
284,166833
276,166848
262,166864
299,166880
350,166895
316,166912
289,166927
279,166942
274,166959
275,166974
278,166990
283,167006
292,167022
304,167037
314,167054
324,167069
325,167086
320,167101
312,167116
302,167133
296,167148
292,167163
292,167182
294,167200
299,167217
298,167231
292,167247
283,167265
276,167281
264,167296
263,167311
317,167328
328,167344
293,167358
277,167374
272,167392
271,167407
273,167421
277,167437
284,167454
294,167470
305,167486
316,167633
295,167649
295,167664
293,167678
284,167694
276,167711
271,167727
257,167741
271,167757
329,167774
310,167790
281,167804
270,167820
267,167837
267,167853
274,167867
279,167883
286,167900
295,167916
307,167930
317,167946
322,167963
316,167979
311,167996
304,168013
297,168030
291,168044
294,168058
296,168076
300,168092
296,168107
294,168122
286,168139
279,168156
268,168170
258,168184
302,168202
344,168219
